0,106.2
2,111.0
4,118.3
6,119.0
8,112.4
10,106.4
12,93.4
14,93.4
16,94.0
18,96.9
20,99.4
22,100.7
24,99.4
26,98.5
28,97.1
30,95.8
32,96.5
34,97.8
36,100.3
38,101.8
40,103.7
42,102.3
44,102.0
46,101.0
48,99.9
50,98.4
52,98.4
54,98.5
56,99.2
58,100.2
60,100.8
62,101.0
64,99.8
66,99.4
68,98.9
70,98.1
72,98.1
74,99.0
76,99.4
78,100.4
80,100.7
82,100.2
84,99.1
86,97.8
88,97.4
90,96.4
92,95.8
94,96.3
96,97.2
98,97.3
100,97.9
102,98.7
104,100.6
106,101.5
108,102.6
110,103.7
112,105.2
114,107.2
116,108.7
118,110.5
120,112.9
122,111.5
124,107.2
126,103.1
128,98.6
130,94.2
132,89.8
134,85.2
136,92.6
138,100.7
140,108.2
142,116.1
144,124.3
146,119.9
148,116.0
150,112.5
152,108.8
154,105.4
156,104.6
158,107.2
160,109.4
162,111.5
164,114.2
166,115.9
168,114.9
170,114.1
172,113.9
174,112.8
176,111.6
178,111.1
180,109.4
182,108.5
184,106.8
186,105.4
188,103.9
190,103.7
192,103.9
194,104.0
196,104.5
198,105.7
200,106.1
202,104.9
204,102.2
206,100.6
208,98.0
210,95.6
212,93.0
214,98.0
216,103.0
218,108.9
220,113.6
222,118.5
224,118.9
226,114.4
228,109.3
230,105.3
232,100.5
234,95.8
236,100.7
238,106.0
240,111.2
242,116.4
244,121.0
246,119.6
248,117.5
250,116.2
252,114.4
254,112.5
256,110.7
258,112.0
260,112.5
262,114.1
264,114.6
266,115.2
268,116.3
270,113.4
272,112.0
274,109.2
276,107.2
278,104.1
280,102.9
282,102.0
284,101.5
286,100.2
288,99.1
290,98.0
292,99.4
294,101.0
296,102.3
298,103.3
300,105.5
302,104.4
304,99.9
306,96.6
308,92.5
310,89.3
312,85.2
314,93.8
316,102.1
318,110.3
320,117.9
322,126.9
324,122.4
326,118.3
328,115.0
330,111.0
332,107.6
334,103.7
336,107.1
338,111.6
340,114.7
342,118.8
344,122.4
346,126.9
348,124.8
350,123.2
352,122.2
354,121.4
356,119.9
358,118.6
360,117.8
362,116.9
364,115.6
366,114.4
368,114.0
370,112.9
372,111.7
374,110.5
376,110.2
378,108.7
380,107.8
382,104.7
384,102.2
386,100.5
388,97.5
390,95.1
392,93.2
394,100.2
396,106.2
398,113.0
400,120.1
402,127.0
404,120.9
406,114.9
408,109.2
410,103.8
412,98.0
414,98.9
416,104.5
418,111.1
420,117.4
422,123.5
424,124.9
426,123.0
428,120.3
430,117.8
432,114.6
434,112.0
436,112.2
438,113.1
440,114.4
442,116.0
444,117.6
446,119.3
448,116.9
450,115.8
452,113.2
454,112.0
456,110.4
458,108.1
460,106.9
462,105.9
464,105.1
466,103.5
468,102.5
470,101.1
472,103.1
474,105.8
476,107.4
478,109.8
480,112.9
482,111.9
484,107.1
486,103.2
488,99.0
490,95.1
492,90.6
494,97.1
496,103.7
498,110.5
500,117.4
502,124.3
504,120.4
506,116.8
508,113.4
510,110.5
512,107.1
514,103.0
516,105.5
518,108.6
520,110.7
522,114.0
524,116.0
526,118.4
528,117.8
530,115.7
532,114.4
534,112.9
536,111.4
538,110.1
540,109.2
542,108.4
544,107.3
546,106.9
548,106.1
550,105.8
552,105.7
554,105.9
556,106.3
558,106.3
560,105.4
562,103.7
564,101.9
566,100.0
568,98.5
570,96.5
572,97.7
574,103.2
576,108.5
578,113.3
580,119.2
582,118.8
584,115.4
586,110.2
588,106.7
590,102.5
592,98.2
594,98.7
596,104.3
598,109.8
600,115.5
602,120.5
604,126.5
606,123.7
608,121.3
610,118.1
612,115.2
614,112.6
616,111.1
618,111.4
620,112.3
622,112.7
624,113.0
626,113.6
628,111.7
630,109.8
632,108.0
634,106.4
636,104.1
638,103.4
640,102.5
642,101.2
644,100.2
646,99.5
648,99.0
650,99.8
652,102.7
654,105.3
656,108.2
658,110.7
660,113.9
662,110.1
664,107.3
666,104.2
668,100.2
670,97.4
672,98.8
674,106.7
676,113.2
678,121.3
680,127.7
682,130.0
684,125.6
686,121.0
688,116.9
690,112.6
692,108.5
694,107.5
696,111.6
698,114.9
700,119.1
702,122.4
704,126.6
706,125.2
708,123.7
710,122.3
712,121.2
714,119.8
716,118.0
718,116.5
720,115.3
722,112.9
724,111.3
726,109.7
728,108.7
730,107.9
732,107.8
734,107.3
736,106.4
738,106.5
740,105.2
742,102.9
744,101.1
746,99.2
748,97.1
750,95.2
752,101.2
754,105.9
756,111.0
758,116.5
760,121.5
762,118.0
764,113.9
766,109.8
768,105.8
770,102.6
772,98.4
774,103.8
776,108.1
778,114.0
780,118.9
782,123.5
784,121.4
786,119.0
788,115.7
790,113.6
792,111.4
794,108.3
796,110.3
798,112.2
800,113.9
802,116.4
804,118.1
806,117.6
808,116.7
810,114.9
812,112.6
814,111.4
816,109.0
818,108.3
820,106.6
822,105.2
824,103.2
826,102.6
828,100.3
830,102.4
832,104.2
834,106.7
836,108.0
838,110.6
840,109.1
842,104.3
844,100.1
846,95.9
848,92.2
850,88.2
852,93.6
854,100.2
856,105.5
858,112.2
860,118.3
862,124.2
864,120.8
866,117.7
868,113.6
870,110.5
872,107.2
874,107.3
876,110.4
878,113.1
880,116.1
882,118.2
884,121.6
886,119.8
888,118.6
890,117.8
892,116.7
894,115.1
896,113.3
898,112.9
900,111.4
902,111.2
904,110.1
906,108.6
908,108.1
910,108.2
912,109.0
914,108.5
916,108.8
918,108.6
920,105.6
922,102.1
924,99.9
926,96.3
928,93.6
930,90.7
932,95.8
934,101.2
936,105.6
938,111.1
940,116.1
942,116.7
944,112.1
946,107.9
948,103.8
950,99.6
952,95.5
954,101.4
956,107.1
958,112.5
960,118.1
962,123.6
964,122.1
966,120.0
968,117.9
970,116.4
972,114.6
974,114.1
976,115.7
978,117.0
980,118.4
982,119.6
984,120.9
986,120.4
988,119.1
990,117.2
992,115.3
994,113.8
996,111.8
998,110.6
1000,109.9
1002,109.1
1004,108.2
1006,106.8
1008,105.9
1010,109.6
1012,112.6
1014,116.5
1016,119.6
1018,122.7
1020,126.1
1022,124.9
1024,122.1
1026,120.4
1028,118.5
1030,116.3
1032,114.5
1034,113.9
1036,113.2
1038,114.0
1040,114.1
1042,113.6
1044,113.4
1046,113.4
1048,112.1
1050,111.6
1052,111.4
1054,110.6
1056,109.6
1058,108.3
1060,105.9
1062,103.2
1064,100.1
1066,97.6
1068,94.2
1070,91.6
1072,94.5
1074,102.1
1076,110.0
1078,118.6
1080,126.7
1082,134.3
1084,132.4
1086,130.4
1088,127.4
1090,125.6
1092,123.4
1094,121.0
1096,119.9
1098,117.9
1100,116.2
1102,114.2
1104,112.5
1106,111.5
1108,112.6
1110,114.8
1112,116.8
1114,119.0
1116,121.0
1118,122.9
1120,122.3
1122,120.1
1124,118.3
1126,115.7
1128,113.4
1130,111.0
1132,108.8
1134,110.2
1136,112.7
1138,115.0
1140,116.9
1142,119.6
1144,121.4
1146,119.3
1148,117.0
1150,114.3
1152,112.3
1154,109.6
1156,107.4
1158,104.7
1160,102.7
1162,100.6
1164,98.0
1166,96.2
1168,94.6
1170,96.3
1172,101.9
1174,108.1
1176,114.0
1178,120.0
1180,126.9
1182,124.9
1184,123.1
1186,121.8
1188,119.7
1190,118.4
1192,117.2
1194,116.1
1196,116.1
1198,115.4
1200,114.8
1202,114.7
1204,114.5
1206,113.9
1208,114.2
1210,114.0
1212,114.1
1214,113.3
1216,113.9
1218,113.6
1220,110.7
1222,107.8
1224,105.1
1226,102.1
1228,98.4
1230,95.8
1232,101.4
1234,106.6
1236,112.0
1238,117.5
1240,123.8
1242,129.1
1244,127.4
1246,124.8
1248,123.1
1250,120.4
1252,118.6
1254,115.8
1256,114.3
1258,112.6
1260,110.7
1262,108.6
1264,105.9
1266,104.3
1268,104.5
1270,107.7
1272,111.5
1274,114.7
1276,117.9
1278,121.1
1280,124.1
1282,121.6
1284,118.3
1286,115.9
1288,113.8
1290,111.4
1292,108.0
1294,110.7
1296,113.0
1298,114.5
1300,117.0
1302,119.6
1304,121.6
1306,119.9
1308,119.2
1310,117.4
1312,116.6
1314,114.8
1316,113.8
1318,111.0
1320,108.3
1322,106.3
1324,103.0
1326,100.4
1328,98.0
1330,95.8
1332,102.5
1334,109.2
1336,115.1
1338,121.8
1340,128.1
1342,130.7
1344,129.0
1346,126.5
1348,124.3
1350,121.9
1352,120.3
1354,118.0
1356,116.1
1358,114.7
1360,112.8
1362,111.4
1364,109.6
1366,108.5
1368,111.2
1370,113.5
1372,116.1
1374,119.2
1376,121.6
1378,123.9
1380,120.5
1382,118.0
1384,114.2
1386,111.1
1388,108.5
1390,105.0
1392,104.9
1394,107.3
1396,110.0
1398,112.2
1400,114.7
1402,117.3
1404,117.5
1406,116.2
1408,113.6
1410,111.9
1412,110.2
1414,108.2
1416,105.8
1418,103.7
1420,102.1
1422,99.7
1424,97.7
1426,95.6
1428,93.4
1430,98.9
1432,105.3
1434,110.9
1436,117.5
1438,123.9
1440,125.7
1442,124.1
1444,122.1
1446,121.4
1448,119.0
1450,117.3
1452,115.9
1454,115.4
1456,115.4
1458,115.1
1460,114.5
1462,113.8
1464,113.5
1466,113.6
1468,113.3
1470,113.9
1472,113.4
1474,113.5
1476,113.6
1478,112.1
1480,108.7
1482,105.8
1484,103.5
1486,99.6
1488,97.1
1490,97.9
1492,102.5
1494,107.3
1496,112.4
1498,117.2
1500,121.3
1502,123.1
1504,121.7
1506,120.7
1508,119.6
1510,117.9
1512,116.7
1514,115.8
1516,113.4
1518,112.2
1520,110.9
1522,108.7
1524,107.0
1526,105.5
1528,109.9
1530,112.5
1532,116.3
1534,119.7
1536,123.4
1538,127.4
1540,127.3
1542,124.7
1544,121.7
1546,118.9
1548,115.1
1550,113.0
1552,112.1
1554,113.3
1556,115.7
1558,117.5
1560,118.6
1562,121.0
1564,120.1
1566,117.6
1568,115.4
1570,112.2
1572,110.1
1574,107.0
1576,105.0
1578,102.4
1580,99.7
1582,97.5
1584,95.1
1586,92.4
1588,90.0
1590,96.8
1592,102.9
1594,109.5
1596,116.5
1598,122.9
1600,129.3
1602,126.4
1604,124.4
1606,121.5
1608,118.5
1610,115.9
1612,113.9
1614,112.6
1616,112.1
1618,111.8
1620,110.0
1622,109.2
1624,109.4
1626,109.2
1628,110.1
1630,112.1
1632,113.4
1634,114.3
1636,115.7
1638,114.3
1640,110.6
1642,107.7
1644,104.0
1646,100.9
1648,97.7
1650,97.5
1652,102.8
1654,107.1
1656,112.5
1658,116.6
1660,121.7
1662,123.2
1664,121.4
1666,120.2
1668,118.6
1670,116.9
1672,115.5
1674,114.2
1676,111.5
1678,109.4
1680,106.8
1682,105.4
1684,103.0
1686,100.7
1688,104.7
1690,109.8
1692,113.5
1694,118.1
1696,121.9
1698,127.0
1700,124.2
1702,122.3
1704,121.0
1706,119.0
1708,116.4
1710,114.7
1712,113.7
1714,113.5
1716,112.6
1718,112.3
1720,112.1
1722,111.7
1724,111.4
1726,112.0
1728,112.4
1730,114.1
1732,114.9
1734,115.6
1736,115.8
1738,112.9
1740,110.4
1742,106.7
1744,104.7
1746,101.1
1748,98.4
1750,104.2
1752,109.3
1754,114.8
1756,120.6
1758,126.2
1760,131.6
1762,129.7
1764,127.8
1766,125.2
1768,122.8
1770,120.8
1772,118.7
1774,116.3
1776,114.2
1778,112.5
1780,110.0
1782,108.5
1784,105.6
1786,108.4
1788,112.0
1790,115.1
1792,117.4
1794,120.3
1796,123.2
1798,126.5
1800,123.5
1802,120.3
1804,117.0
1806,114.5
1808,112.0
1810,108.7
1812,110.2
1814,111.5
1816,113.4
1818,115.2
1820,117.3
1822,119.2
1824,117.2
1826,115.3
1828,113.3
1830,111.3
1832,108.4
1834,106.5
1836,104.8
1838,103.4
1840,101.2
1842,100.2
1844,98.3
1846,96.5
1848,98.1
1850,103.7
1852,109.2
1854,115.5
1856,120.8
1858,126.5
1860,127.8
1862,125.7
1864,123.6
1866,121.8
1868,119.7
1870,117.0
1872,116.0
1874,114.0
1876,113.6
1878,111.7
1880,110.6
1882,110.0
1884,108.2
1886,110.1
1888,111.9
1890,113.4
1892,115.6
1894,117.4
1896,119.2
1898,115.6
1900,112.8
1902,109.5
1904,106.5
1906,103.5
1908,101.2
1910,104.4
1912,107.4
1914,110.3
1916,113.5
1918,116.7
1920,119.9
1922,120.3
1924,118.1
1926,116.1
1928,114.9
1930,112.5
1932,110.9
1934,108.2
1936,106.8
1938,104.8
1940,103.1
1942,101.2
1944,99.5
1946,98.6
1948,104.1
1950,110.5
1952,116.4
1954,122.5
1956,128.7
1958,130.4
1960,129.2
1962,127.1
1964,125.0
1966,122.7
1968,120.4
1970,119.2
1972,117.8
1974,116.7
1976,116.1
1978,115.7
1980,114.7
1982,114.0
1984,113.6
1986,112.6
1988,112.9
1990,112.0
1992,111.8
1994,110.8
1996,110.2
1998,106.7
2000,103.7
2002,101.4
2004,98.3
2006,95.5
2008,93.2
2010,99.5
2012,106.6
2014,112.6
2016,119.5
2018,125.8
2020,128.2
2022,126.0
2024,123.7
2026,122.0
2028,119.3
2030,117.0
2032,115.3
2034,113.3
2036,110.4
2038,108.7
2040,107.0
2042,104.7
2044,105.2
2046,107.3
2048,110.0
2050,112.2
2052,115.4
2054,117.4
2056,120.4
2058,120.0
2060,117.6
2062,115.2
2064,112.4
2066,110.2
2068,107.1
2070,107.3
2072,109.6
2074,112.3
2076,114.9
2078,117.2
2080,119.7
2082,120.4
2084,118.0
2086,115.6
2088,112.6
2090,110.5
2092,108.0
2094,106.2
2096,104.1
2098,101.4
2100,99.7
2102,97.0
2104,95.0
2106,92.7
2108,99.4
2110,106.4
2112,113.1
2114,119.0
2116,125.9
2118,128.3
2120,126.6
2122,124.2
2124,121.9
2126,120.3
2128,118.0
2130,116.7
2132,115.3
2134,114.8
2136,113.4
2138,113.0
2140,112.7
2142,111.6
2144,111.3
2146,112.2
2148,112.5
2150,112.4
2152,113.1
2154,113.5
2156,112.5
2158,109.7
2160,107.0
2162,105.1
2164,102.5
2166,99.8
2168,101.0
2170,105.5
2172,110.3
2174,115.0
2176,119.4
2178,124.1
2180,125.4
2182,124.3
2184,122.3
2186,120.7
2188,119.5
2190,117.7
2192,115.9
2194,113.9
2196,111.4
2198,108.2
2200,105.4
2202,103.2
2204,101.1
2206,105.0
2208,108.1
2210,112.6
2212,115.8
2214,119.9
2216,124.4
2218,121.2
2220,118.8
2222,116.7
2224,114.5
2226,112.5
2228,110.2
2230,108.5
2232,109.4
2234,111.0
2236,111.3
2238,112.8
2240,113.4
2242,112.9
2244,112.7
2246,111.2
2248,110.6
2250,109.9
2252,108.9
2254,107.6
2256,105.4
2258,103.5
2260,101.3
2262,98.6
2264,96.0
2266,94.4
2268,96.4
2270,101.3
2272,107.1
2274,112.6
2276,117.9
2278,124.1
2280,122.1
2282,120.8
2284,119.1
2286,117.4
2288,115.3
2290,113.5
2292,112.6
2294,111.4
2296,109.8
2298,108.9
2300,106.8
2302,106.3
2304,107.5
2306,109.5
2308,111.9
2310,113.4
2312,115.4
2314,117.3
2316,117.2
2318,114.3
2320,110.4
2322,107.9
2324,104.9
2326,101.0
2328,97.8
2330,102.3
2332,106.0
2334,109.5
2336,113.5
2338,116.5
2340,118.1
2342,117.3
2344,115.6
2346,114.9
2348,113.5
2350,112.5
2352,111.1
2354,108.4
2356,105.7
2358,103.1
2360,101.0
2362,97.8
2364,95.2
2366,100.9
2368,106.5
2370,112.8
2372,118.0
2374,124.2
2376,124.6
2378,121.9
2380,118.5
2382,115.3
2384,112.6
2386,109.5
2388,106.3
2390,107.2
2392,108.8
2394,110.8
2396,112.0
2398,114.1
2400,115.5
2402,115.4
2404,114.0
2406,112.1
2408,109.7
2410,108.0
2412,106.9
2414,104.6
2416,101.8
2418,99.4
2420,97.2
2422,94.7
2424,91.8
2426,93.4
2428,99.3
2430,105.5
2432,111.3
2434,117.6
2436,123.7
2438,125.2
2440,123.4
2442,121.9
2444,120.9
2446,118.9
2448,116.7
2450,116.2
2452,115.0
2454,114.2
2456,113.9
2458,112.2
2460,111.6
2462,111.2
2464,112.0
2466,113.6
2468,114.4
2470,115.4
2472,116.7
2474,118.1
2476,116.8
2478,113.3
2480,110.6
2482,106.6
2484,103.2
2486,99.5
2488,100.4
2490,105.0
2492,110.0
2494,114.3
2496,119.6
2498,124.3
2500,122.2
2502,120.9
2504,119.7
2506,118.9
2508,117.1
2510,116.6
2512,114.6
2514,112.9
2516,110.7
2518,109.4
2520,106.6
2522,105.1
2524,103.2
2526,108.1
2528,112.0
2530,116.6
2532,120.2
2534,125.3
2536,129.1
2538,126.5
2540,124.4
2542,121.3
2544,118.7
2546,116.4
2548,113.3
2550,113.5
2552,113.4
2554,113.3
2556,114.1
2558,113.8
2560,113.6
2562,113.4
2564,113.0
2566,112.7
2568,112.6
2570,112.2
2572,111.2
2574,109.4
2576,106.6
2578,103.7
2580,100.6
2582,97.8
2584,94.7
2586,95.9
2588,101.9
2590,108.0
2592,113.7
2594,119.8
2596,126.3
2598,127.8
2600,125.3
2602,123.2
2604,121.1
2606,118.2
2608,116.4
2610,114.1
2612,112.1
2614,110.4
2616,108.1
2618,107.3
2620,105.0
2622,103.8
2624,106.0
2626,108.0
2628,110.6
2630,113.8
2632,116.3
2634,118.3
2636,116.7
2638,114.4
2640,111.7
2642,109.3
2644,106.5
2646,104.9
2648,104.2
2650,106.7
2652,108.2
2654,110.4
2656,112.0
2658,113.9
2660,116.5
2662,114.1
2664,112.0
2666,110.3
2668,108.1
2670,105.9
2672,103.1
2674,101.3
2676,99.5
2678,96.8
2680,94.4
2682,93.0
2684,90.5
2686,95.7
2688,101.3
2690,106.1
2692,111.0
2694,116.1
2696,121.3
2698,118.9
2700,117.4
2702,115.3
2704,112.6
2706,110.5
2708,108.9
2710,107.6
2712,107.7
2714,107.3
2716,107.1
2718,106.2
2720,106.3
2722,106.6
2724,108.4
2726,109.4
2728,111.4
2730,113.1
2732,114.3
2734,115.8
2736,112.9
2738,110.0
2740,106.8
2742,104.6
2744,101.1
2746,98.5
2748,103.8
2750,108.1
2752,113.8
2754,119.2
2756,124.1
2758,125.6
2760,123.9
2762,121.7
2764,120.5
2766,119.3
2768,117.5
2770,114.6
2772,112.9
2774,110.1
2776,108.3
2778,105.1
2780,103.6
2782,101.1
2784,104.0
2786,107.5
2788,111.8
2790,114.7
2792,118.6
2794,122.5
2796,122.9
2798,120.6
2800,118.5
2802,116.0
2804,114.8
2806,112.0
2808,110.8
2810,110.9
2812,111.6
2814,110.7
2816,111.5
2818,111.3
2820,111.4
2822,110.7
2824,109.7
2826,108.9
2828,107.3
2830,107.1
2832,105.9
2834,103.8
2836,102.0
2838,100.0
2840,97.6
2842,95.2
2844,93.1
2846,98.6
2848,104.1
2850,109.7
2852,115.0
2854,120.5
2856,126.8
2858,124.9
2860,123.8
2862,121.9
2864,119.7
2866,118.2
2868,116.7
2870,115.8
2872,113.3
2874,111.9
2876,110.6
2878,109.0
2880,106.5
2882,106.5
2884,108.8
2886,110.8
2888,113.1
2890,115.6
2892,118.1
2894,117.7
2896,115.4
2898,112.6
2900,110.8
2902,108.3
2904,106.1
2906,103.8
2908,105.4
2910,107.3
2912,109.5
2914,111.9
2916,114.5
2918,116.1
2920,114.9
2922,113.1
2924,111.1
2926,109.7
2928,108.4
2930,106.9
2932,104.7
2934,102.1
2936,100.2
2938,97.3
2940,95.7
2942,92.6
2944,90.1
2946,98.4
2948,106.4
2950,114.3
2952,122.2
2954,130.7
2956,132.9
2958,130.3
2960,127.7
2962,124.8
2964,122.7
2966,119.8
2968,118.7
2970,117.7
2972,118.2
2974,117.3
2976,117.2
2978,116.4
2980,115.6
2982,116.0
2984,115.5
2986,115.2
2988,114.5
2990,114.4
2992,114.2
2994,112.3
2996,109.0
2998,106.3
3000,103.3
3002,100.6
3004,97.0
3006,98.6
3008,105.0
3010,110.8
3012,117.2
3014,123.0
3016,128.8
3018,127.2
3020,124.4
3022,122.3
3024,120.6
3026,118.6
3028,116.6
3030,114.0
3032,111.9
3034,110.7
3036,108.0
3038,106.1
3040,104.2
3042,104.8
3044,107.9
3046,110.6
3048,113.3
3050,115.5
3052,118.5
3054,121.4
3056,118.9
3058,116.9
3060,114.8
3062,112.4
3064,110.7
3066,108.7
3068,109.7
3070,111.7
3072,113.5
3074,115.1
3076,116.7
3078,118.0
3080,118.0
3082,115.3
3084,113.3
3086,111.0
3088,109.1
3090,106.9
3092,104.6
3094,103.0
3096,100.4
3098,98.2
3100,95.9
3102,94.1
3104,95.7
3106,101.3
3108,106.8
3110,112.8
3112,118.6
3114,123.7
3116,125.7
3118,123.9
3120,122.1
3122,119.7
3124,118.0
3126,116.1
3128,114.0
3130,112.4
3132,110.7
3134,109.3
3136,108.5
3138,107.2
3140,105.8
3142,108.1
3144,110.3
3146,112.7
3148,114.1
3150,116.4
3152,119.1
3154,117.2
3156,115.3
3158,113.2
3160,111.3
3162,108.7
3164,106.8
3166,107.0
3168,109.9
3170,112.8
3172,114.8
3174,117.6
3176,119.9
3178,119.7
3180,116.9
3182,114.0
3184,112.2
3186,108.8
3188,106.5
3190,103.6
3192,101.5
3194,99.9
3196,99.0
3198,96.8
3200,95.9
3202,93.5
3204,96.1
3206,101.8
3208,106.8
3210,112.5
3212,118.8
3214,123.7
3216,121.7
3218,119.6
3220,117.3
3222,115.6
3224,113.5
3226,111.0
3228,111.4
3230,110.8
3232,110.6
3234,111.2
3236,111.6
3238,110.6
3240,110.4
3242,110.3
3244,110.2
3246,109.1
3248,109.0
3250,108.9
3252,107.0
3254,104.0
3256,101.3
3258,98.7
3260,96.0
3262,93.6
3264,90.6
3266,96.3
3268,102.2
3270,107.3
3272,112.9
3274,119.0
3276,120.6
3278,119.9
3280,118.7
3282,116.9
3284,116.0
3286,114.6
3288,113.4
3290,111.9
3292,110.1
3294,108.8
3296,107.2
3298,105.4
3300,103.2
3302,107.5
3304,111.7
3306,115.9
3308,121.0
3310,124.7
3312,128.8
3314,126.7
3316,123.5
3318,120.3
3320,117.7
3322,115.4
3324,112.8
3326,111.4
3328,113.3
3330,114.4
3332,115.6
3334,116.2
3336,117.2
3338,119.2
3340,116.5
3342,114.6
3344,112.6
3346,109.8
3348,108.3
3350,106.3
3352,103.6
3354,100.7
3356,98.6
3358,95.7
3360,93.3
3362,90.8
3364,96.3
3366,101.4
3368,106.8
3370,112.5
3372,118.3
3374,123.9
3376,122.8
3378,121.4
3380,120.6
3382,119.6
3384,117.7
3386,117.0
3388,116.0
3390,114.9
3392,113.8
3394,113.5
3396,112.8
3398,111.7
3400,111.5
3402,111.6
3404,111.0
3406,111.2
3408,111.1
3410,111.6
3412,109.3
3414,106.9
3416,104.6
3418,101.2
3420,98.9
3422,95.8
3424,93.6
3426,99.1
3428,104.1
3430,110.2
3432,115.3
3434,121.2
3436,122.8
3438,120.4
3440,117.0
3442,114.6
3444,112.6
3446,109.8
3448,107.6
3450,105.3
3452,103.7
3454,102.4
3456,99.7
3458,98.3
3460,97.0
3462,96.8
3464,100.8
3466,103.6
3468,107.5
3470,110.7
3472,114.1
3474,111.7
3476,110.3
3478,108.8
3480,106.6
3482,104.8
3484,102.9
3486,106.4
3488,108.7
3490,111.2
3492,113.9
3494,116.3
3496,118.8
3498,116.4
3500,114.2
3502,111.4
3504,109.7
3506,107.3
3508,104.4
3510,102.5
3512,100.1
3514,98.9
3516,96.9
3518,94.9
3520,92.3
3522,90.2
3524,95.8
3526,101.3
3528,107.0
3530,112.5
3532,119.1
3534,120.0
3536,118.1
3538,116.8
3540,114.5
3542,112.7
3544,110.6
3546,108.9
3548,108.2
3550,107.7
3552,107.4
3554,106.7
3556,106.2
3558,105.9
3560,106.9
3562,108.8
3564,109.6
3566,110.8
3568,112.1
3570,114.0
3572,110.5
3574,107.9
3576,105.0
3578,101.2
3580,98.9
3582,95.4
3584,99.3
3586,103.7
3588,107.9
3590,111.3
3592,115.5
3594,119.2
3596,120.8
3598,119.6
3600,118.3
3602,117.0
3604,115.3
3606,114.5
3608,112.8
3610,110.7
3612,107.9
3614,106.1
3616,103.9
3618,101.5
3620,102.5
3622,106.7
3624,110.9
3626,114.4
3628,118.9
3630,122.6
3632,126.8
3634,123.9
3636,121.4
3638,118.9
3640,116.7
3642,113.7
3644,111.1
3646,111.6
3648,112.1
3650,111.9
3652,112.7
3654,113.1
3656,113.9
3658,113.1
3660,111.9
3662,111.2
3664,109.5
3666,108.0
3668,106.8
3670,105.5
3672,102.8
3674,100.7
3676,98.5
3678,95.9
3680,92.6
3682,90.6
3684,96.7
3686,104.0
3688,109.8
3690,116.8
3692,123.1
3694,125.8
3696,123.8
3698,122.5
3700,120.2
3702,119.2
3704,117.1
3706,115.7
3708,114.2
3710,112.7
3712,110.4
3714,108.9
3716,107.2
3718,105.7
3720,108.0
3722,110.4
3724,112.3
3726,113.9
3728,116.0
3730,118.2
3732,117.7
3734,114.0
3736,111.3
3738,108.6
3740,105.1
3742,102.2
3744,102.3
3746,104.3
3748,106.2
3750,108.0
3752,109.5
3754,111.5
3756,113.7
3758,112.0
3760,110.3
3762,108.7
3764,106.7
3766,105.4
3768,103.2
3770,100.6
3772,97.9
3774,95.3
3776,93.4
3778,90.4
3780,87.6
3782,93.7
3784,99.1
3786,104.2
3788,110.0
3790,115.5
3792,121.6
3794,119.6
3796,117.8
3798,116.2
3800,115.1
3802,113.0
3804,112.2
3806,111.0
3808,111.9
3810,112.1
3812,112.6
3814,112.6
3816,113.8
3818,114.5
3820,114.5
3822,115.5
3824,117.1
3826,117.6
3828,118.0
3830,116.9
3832,114.2
3834,111.1
3836,107.8
3838,105.0
3840,101.4
3842,98.0
3844,104.2
3846,110.1
3848,115.9
3850,121.7
3852,128.1
3854,134.4
3856,131.6
3858,129.9
3860,127.9
3862,125.8
3864,123.8
3866,121.7
3868,119.0
3870,115.8
3872,113.6
3874,111.2
3876,108.2
3878,105.4
3880,108.8
3882,112.2
3884,115.3
3886,118.3
3888,122.1
3890,125.3
3892,124.7
3894,122.4
3896,118.5
3898,116.4
3900,113.5
3902,109.5
3904,109.4
3906,110.9
3908,112.1
3910,113.5
3912,114.3
3914,115.1
3916,115.8
3918,114.1
3920,112.6
3922,111.0
3924,109.7
3926,107.8
3928,106.9
3930,104.4
3932,102.9
3934,100.9
3936,98.4
3938,96.3
3940,94.0
3942,96.4
3944,101.7
3946,107.0
3948,112.4
3950,118.0
3952,123.9
3954,122.6
3956,120.7
3958,118.5
3960,117.5
3962,115.3
3964,114.1
3966,112.2
3968,111.4
3970,110.5
3972,108.7
3974,107.9
3976,107.0
3978,106.5
3980,108.5
3982,111.0
3984,112.7
3986,114.4
3988,116.8
3990,119.1
3992,116.0
3994,113.5
3996,111.4
3998,108.6
4000,106.3
4002,103.3
4004,106.2
4006,108.3
4008,110.1
4010,113.3
4012,115.2
4014,117.3
4016,117.4
4018,115.8
4020,113.0
4022,111.1
4024,108.8
4026,106.9
4028,104.7
4030,102.7
4032,100.3
4034,98.0
4036,96.4
4038,94.0
4040,96.1
4042,101.1
4044,106.6
4046,112.4
4048,118.3
4050,123.8
4052,122.4
4054,120.1
4056,118.4
4058,116.7
4060,114.3
4062,112.9
4064,110.9
4066,111.0
4068,110.7
4070,111.4
4072,111.5
4074,110.6
4076,111.2
4078,110.9
4080,110.0
4082,110.1
4084,109.5
4086,109.4
4088,109.0
4090,105.3
4092,102.9
4094,100.2
4096,97.1
4098,94.5
4100,92.4
4102,93.3
4104,100.3
4106,107.2
4108,113.2
4110,119.9
4112,127.0
4114,124.1
4116,121.4
4118,118.9
4120,117.5
4122,114.4
4124,112.3
4126,110.0
4128,109.1
4130,108.3
4132,106.6
4134,105.8
4136,103.8
4138,104.8
4140,107.9
4142,110.3
4144,112.9
4146,116.2
4148,118.5
4150,121.4
4152,118.9
4154,115.1
4156,112.2
4158,108.9
4160,106.3
4162,103.1
4164,105.3
4166,106.5
4168,108.7
4170,110.0
4172,111.8
4174,113.5
4176,112.4
4178,110.7
4180,109.1
4182,108.2
4184,106.4
4186,104.6
4188,103.8
4190,100.7
4192,97.8
4194,95.6
4196,92.7
4198,90.2
4200,88.1
4202,94.1
4204,101.3
4206,108.0
4208,114.2
4210,120.8
4212,123.1
4214,121.4
4216,118.8
4218,116.7
4220,115.1
4222,113.1
4224,110.8
4226,109.9
4228,108.0
4230,107.7
4232,105.7
4234,104.2
4236,103.0
4238,104.9
4240,106.6
4242,108.1
4244,110.0
4246,111.7
4248,113.6
4250,111.2
4252,108.8
4254,106.4
4256,103.8
4258,101.3
4260,99.1
4262,100.2
4264,103.8
4266,107.2
4268,110.2
4270,113.7
4272,116.9
4274,118.2
4276,116.5
4278,114.9
4280,113.2
4282,111.0
4284,109.6
4286,107.5
4288,104.5
4290,102.5
4292,99.1
4294,97.4
4296,94.7
4298,94.8
4300,99.6
4302,103.1
4304,108.1
4306,112.3
4308,116.3
4310,114.4
4312,111.4
4314,109.4
4316,107.3
4318,104.7
4320,102.9
4322,100.6
4324,103.7
4326,106.7
4328,110.2
4330,112.6
4332,116.2
4334,118.7
4336,116.1
4338,113.7
4340,111.0
4342,108.3
4344,106.0
4346,103.1
4348,100.9
4350,98.7
4352,96.2
4354,94.2
4356,91.2
4358,89.6
4360,91.5
4362,98.2
4364,104.6
4366,110.5
4368,117.4
4370,123.6
4372,122.5
4374,120.6
4376,118.6
4378,117.5
4380,115.0
4382,113.8
4384,113.9
4386,113.3
4388,113.8
4390,114.0
4392,113.3
4394,113.7
4396,113.5
4398,113.9
4400,113.3
4402,114.1
4404,114.1
4406,113.4
4408,113.5
4410,110.8
4412,107.9
4414,104.6
4416,101.3
4418,98.2
4420,96.1
4422,100.7
4424,106.3
4426,111.0
4428,116.6
4430,120.9
4432,122.7
4434,122.0
4436,120.4
4438,118.2
4440,116.7
4442,115.2
4444,113.6
4446,111.4
4448,110.1
4450,107.5
4452,106.0
4454,103.3
4456,101.3
4458,102.9
4460,106.4
4462,110.6
4464,113.9
4466,118.6
4468,122.2
4470,123.3
4472,120.6
4474,118.8
4476,116.9
4478,115.1
4480,112.9
4482,110.7
4484,111.8
4486,112.6
4488,113.5
4490,114.2
4492,115.1
4494,116.3
4496,114.8
4498,113.5
4500,112.4
4502,111.3
4504,109.7
4506,108.6
4508,105.8
4510,102.2
4512,99.4
4514,96.1
4516,92.2
4518,89.4
4520,91.5
4522,98.7
4524,105.0
4526,111.5
4528,118.9
4530,125.3
4532,128.3
4534,125.9
4536,123.9
4538,121.9
4540,119.6
4542,117.4
4544,115.8
4546,114.6
4548,113.4
4550,111.2
4552,110.5
4554,108.9
4556,109.7
4558,111.0
4560,112.4
4562,113.7
4564,115.5
4566,117.4
4568,118.5
4570,115.4
4572,113.2
4574,110.1
4576,106.5
4578,103.6
4580,101.3
4582,103.8
4584,106.4
4586,108.9
4588,111.7
4590,114.2
4592,117.6
4594,117.3
4596,115.1
4598,113.7
4600,111.7
4602,109.4
4604,106.9
4606,104.9
4608,102.9
4610,100.8
4612,99.0
4614,97.0
4616,95.2
4618,93.5
4620,99.7
4622,104.8
4624,111.2
4626,117.1
4628,123.3
4630,125.2
4632,123.0
4634,121.4
4636,119.0
4638,117.3
4640,114.3
4642,112.9
4644,112.5
4646,111.4
4648,110.9
4650,110.8
4652,109.3
4654,108.6
4656,108.8
4658,109.1
4660,109.7
4662,109.9
4664,110.8
4666,110.5
4668,109.7
4670,107.4
4672,105.0
4674,101.9
4676,99.5
4678,96.5
4680,97.6
4682,102.2
4684,107.6
4686,111.8
4688,116.9
4690,121.0
4692,121.0
4694,120.1
4696,118.6
4698,117.7
4700,117.0
4702,117.0
4704,114.7
4706,112.4
4708,109.7
4710,107.5
4712,104.6
4714,102.1
4716,103.1
4718,105.8
4720,110.0
4722,112.8
4724,116.8
4726,120.7
4728,124.1
4730,121.3
4732,118.1
4734,115.5
4736,112.7
4738,110.1
4740,107.2
4742,106.6
4744,108.3
4746,109.9
4748,111.8
4750,113.3
4752,115.7
4754,115.4
4756,113.3
4758,112.1
4760,110.5
4762,108.2
4764,106.4
4766,104.3
4768,102.2
4770,100.8
4772,98.9
4774,95.8
4776,94.4
4778,95.2
4780,100.9
4782,106.2
4784,110.9
4786,115.7
4788,121.5
4790,127.0
4792,124.5
4794,122.8
4796,121.0
4798,119.7
4800,118.0
4802,116.5
4804,115.2
4806,114.0
4808,112.7
4810,110.8
4812,109.8
4814,108.3
4816,109.5
4818,111.3
4820,112.2
4822,113.7
4824,114.3
4826,115.6
4828,114.7
4830,111.3
4832,108.4
4834,105.7
4836,102.3
4838,100.1
4840,99.8
4842,103.7
4844,108.1
4846,111.3
4848,116.0
4850,119.7
4852,120.4
4854,119.8
4856,118.6
4858,117.5
4860,116.4
4862,115.1
4864,113.8
4866,110.9
4868,108.7
4870,106.4
4872,103.5
4874,100.9
4876,98.1
4878,103.1
4880,108.0
4882,111.9
4884,116.6
4886,121.6
4888,122.2
4890,118.8
4892,114.9
4894,111.8
4896,108.6
4898,105.2
4900,104.5
4902,106.6
4904,108.5
4906,110.6
4908,112.4
4910,114.3
4912,116.3
4914,113.8
4916,112.0
4918,110.3
4920,108.7
4922,106.5
4924,104.0
4926,102.4
4928,99.9
4930,98.3
4932,96.2
4934,93.8
4936,91.7
4938,93.8
4940,101.0
4942,108.4
4944,115.3
4946,122.1
4948,129.0
4950,126.7
4952,124.8
4954,122.8
4956,121.0
4958,119.6
4960,117.2
4962,115.7
4964,115.2
4966,115.0
4968,115.1
4970,114.2
4972,114.2
4974,114.0
4976,113.3
4978,113.8
4980,114.2
4982,113.6
4984,113.3
4986,114.1
4988,111.3
4990,108.2
4992,105.4
4994,102.3
4996,100.1
4998,97.0
5000,97.7
5002,103.5
5004,108.9
5006,113.9
5008,118.5
5010,123.5
5012,122.6
5014,120.9
5016,118.8
5018,117.2
5020,115.4
5022,113.6
5024,110.9
5026,108.5
5028,106.3
5030,104.5
5032,101.4
5034,99.1
5036,99.7
5038,102.1
5040,104.9
5042,108.1
5044,110.7
5046,113.8
5048,111.7
5050,108.6
5052,107.0
5054,104.6
5056,102.1
5058,99.5
5060,100.4
5062,104.7
5064,108.9
5066,112.5
5068,117.6
5070,121.5
5072,120.1
5074,118.1
5076,116.2
5078,115.1
5080,113.5
5082,111.8
5084,109.9
5086,107.6
5088,105.8
5090,103.5
5092,101.9
5094,98.9
5096,100.1
5098,104.3
5100,108.8
5102,113.0
5104,117.3
5106,121.9
5108,118.2
5110,115.7
5112,112.1
5114,109.4
5116,106.6
5118,103.3
5120,100.9
5122,103.1
5124,105.3
5126,107.3
5128,109.5
5130,111.4
5132,113.2
5134,112.4
5136,112.1
5138,111.6
5140,109.7
5142,109.4
5144,108.8
5146,106.3
5148,103.4
5150,100.9
5152,98.4
5154,96.0
5156,92.7
5158,99.5
5160,104.6
5162,111.4
5164,116.7
5166,122.8
5168,128.6
5170,127.3
5172,125.5
5174,123.6
5176,122.2
5178,120.4
5180,119.1
5182,118.0
5184,116.6
5186,114.9
5188,113.9
5190,113.3
5192,111.3
5194,111.2
5196,112.1
5198,112.6
5200,112.4
5202,113.1
5204,113.3
5206,114.0
5208,110.2
5210,107.3
5212,104.8
5214,101.4
5216,98.8
5218,95.5
5220,101.1
5222,106.2
5224,111.0
5226,116.5
5228,121.1
5230,122.6
5232,119.7
5234,117.8
5236,115.2
5238,112.8
5240,110.2
5242,108.2
5244,106.0
5246,105.3
5248,103.4
5250,101.8
5252,100.5
5254,98.8
5256,99.6
5258,102.9
5260,106.0
5262,109.7
5264,113.3
5266,116.3
5268,113.2
5270,110.1
5272,107.2
5274,103.9
5276,101.5
5278,97.9
5280,102.6
5282,106.9
5284,110.9
5286,115.4
5288,119.1
5290,121.0
5292,119.3
5294,117.7
5296,116.0
5298,114.6
5300,113.2
5302,111.0
5304,109.3
5306,107.0
5308,104.6
5310,102.9
5312,100.2
5314,98.3
5316,101.2
5318,104.8
5320,108.8
5322,111.8
5324,115.3
5326,118.5
5328,116.4
5330,114.4
5332,112.1
5334,108.9
5336,107.0
5338,104.6
5340,104.4
5342,105.9
5344,107.6
5346,109.4
5348,111.2
5350,112.8
5352,113.0
5354,112.1
5356,110.7
5358,109.0
5360,108.2
5362,106.9
5364,104.4
5366,102.4
5368,99.8
5370,97.8
5372,95.0
5374,93.0
5376,90.3
5378,95.7
5380,101.2
5382,105.8
5384,111.5
5386,116.7
5388,121.8
5390,119.8
5392,119.2
5394,117.1
5396,116.2
5398,115.4
5400,113.9
5402,112.9
5404,111.9
5406,111.4
5408,110.4
5410,109.3
5412,108.9
5414,109.4
5416,110.5
5418,112.2
5420,113.7
5422,114.2
5424,115.4
5426,114.3
5428,112.1
5430,108.4
5432,105.7
5434,103.2
5436,99.2
5438,100.4
5440,104.5
5442,109.1
5444,112.8
5446,117.1
5448,121.1
5450,120.2
5452,118.7
5454,116.6
5456,115.4
5458,114.4
5460,112.1
5462,110.9
5464,109.0
5466,106.6
5468,104.4
5470,102.5
5472,100.0
5474,98.2
5476,102.2
5478,105.8
5480,109.0
5482,113.5
5484,116.6
5486,117.6
5488,114.2
5490,111.6
5492,108.0
5494,105.0
5496,102.3
5498,101.5
5500,104.1
5502,106.9
5504,109.4
5506,111.0
5508,114.2
5510,116.5
5512,114.6
5514,112.5
5516,110.5
5518,108.3
5520,106.5
5522,104.8
5524,101.9
5526,100.0
5528,97.6
5530,96.3
5532,93.7
5534,91.8
5536,93.4
5538,98.7
5540,103.0
5542,108.8
5544,114.1
5546,118.4
5548,120.6
5550,118.0
5552,116.2
5554,113.9
5556,111.5
5558,109.2
5560,108.1
5562,108.1
5564,108.6
5566,108.4
5568,108.2
5570,108.7
5572,108.9
5574,109.1
5576,109.9
5578,109.8
5580,110.6
5582,110.3
5584,111.3
5586,108.8
5588,105.9
5590,102.9
5592,100.1
5594,97.1
5596,94.7
5598,95.7
5600,100.6
5602,104.8
5604,109.0
5606,114.2
5608,118.4
5610,116.8
5612,115.2
5614,113.9
5616,111.6
5618,109.9
5620,108.0
5622,106.9
5624,104.7
5626,102.1
5628,100.1
5630,98.6
5632,96.4
5634,97.6
5636,101.2
5638,105.4
5640,108.5
5642,112.6
5644,115.8
5646,113.5
5648,110.3
5650,106.9
5652,103.5
5654,100.1
5656,97.5
5658,97.7
5660,100.9
5662,104.9
5664,108.7
5666,112.8
5668,116.4
5670,115.2
5672,114.0
5674,112.4
5676,111.3
5678,109.8
5680,109.4
5682,107.4
5684,105.2
5686,102.9
5688,100.7
5690,98.9
5692,96.4
5694,97.5
5696,102.9
5698,107.2
5700,111.9
5702,116.6
5704,121.7
5706,118.3
5708,115.8
5710,113.0
5712,109.8
5714,106.6
5716,104.0
5718,100.8
5720,103.3
5722,106.0
5724,108.3
5726,110.7
5728,113.5
5730,115.8
5732,113.5
5734,111.1
5736,108.9
5738,105.5
5740,103.5
5742,100.8
5744,98.6
5746,97.1
5748,95.3
5750,93.7
5752,92.0
5754,90.4
5756,95.7
5758,100.3
5760,105.6
5762,110.7
5764,116.3
5766,121.2
5768,119.7
5770,117.7
5772,115.8
5774,115.0
5776,112.4
5778,110.7
5780,110.7
5782,111.6
5784,111.2
5786,111.2
5788,111.6
5790,110.7
5792,112.2
5794,112.6
5796,114.2
5798,115.2
5800,116.3
5802,118.0
5804,118.4
5806,115.4
5808,110.9
5810,107.3
5812,103.8
5814,99.0
5816,96.0
5818,100.4
5820,105.2
5822,109.3
5824,114.4
5826,119.2
5828,120.7
5830,119.1
5832,117.9
5834,117.3
5836,115.2
5838,114.6
5840,113.1
5842,109.9
5844,107.8
5846,106.1
5848,103.3
5850,101.6
5852,99.5
5854,100.4
5856,104.4
5858,108.9
5860,113.1
5862,116.9
5864,121.5
5866,118.3
5868,114.7
5870,111.1
5872,107.5
5874,103.8
5876,100.5
5878,102.7
5880,106.0
5882,107.6
5884,110.6
5886,112.3
5888,114.8
5890,115.1
5892,112.8
5894,111.2
5896,109.2
5898,107.0
5900,104.1
5902,102.4
5904,99.2
5906,97.4
5908,94.4
5910,91.6
5912,88.8
5914,90.2
5916,96.0
5918,102.3
5920,107.7
5922,113.5
5924,118.2
5926,120.7
5928,118.8
5930,117.5
5932,115.7
5934,114.1
5936,112.8
5938,110.8
5940,110.6
5942,110.4
5944,109.4
5946,109.8
5948,108.9
5950,108.8
5952,109.1
5954,109.6
5956,110.0
5958,110.6
5960,110.8
5962,110.9
5964,107.9
5966,105.7
5968,102.4
5970,99.8
5972,96.8
5974,94.5
5976,95.3
5978,100.9
5980,106.2
5982,111.4
5984,116.0
5986,121.4
5988,123.3
5990,121.9
5992,120.8
5994,119.1
5996,118.6
5998,116.4
6000,115.7
6002,113.7
6004,111.7
6006,110.4
6008,108.1
6010,107.0
6012,107.6
6014,110.3
6016,113.4
6018,117.2
6020,120.0
6022,123.7
6024,126.8
6026,124.1
6028,121.1
6030,119.0
6032,116.7
6034,113.3
6036,110.9
6038,111.2
6040,111.8
6042,112.5
6044,112.7
6046,113.2
6048,113.3
6050,112.9
6052,112.3
6054,112.1
6056,111.0
6058,110.0
6060,109.6
6062,108.1
6064,104.8
6066,101.4
6068,98.7
6070,95.0
6072,91.5
6074,87.4
6076,95.1
6078,103.0
6080,110.3
6082,118.3
6084,125.6
6086,127.8
6088,125.5
6090,123.2
6092,120.1
6094,117.7
6096,115.4
6098,113.0
6100,112.9
6102,111.3
6104,111.0
6106,110.4
6108,109.4
6110,108.5
6112,110.2
6114,111.3
6116,113.0
6118,114.6
6120,116.5
6122,117.9
6124,117.0
6126,114.7
6128,111.2
6130,108.2
6132,105.2
6134,102.0
6136,102.4
6138,104.9
6140,107.2
6142,111.0
6144,113.6
6146,116.3
6148,119.2
6150,116.6
6152,113.5
6154,111.2
6156,108.6
6158,105.7
6160,103.1
6162,101.3
6164,100.1
6166,98.5
6168,96.8
6170,94.6
6172,92.8
6174,97.8
6176,102.6
6178,107.7
6180,112.3
6182,117.1
6184,121.8
6186,120.3
6188,118.2
6190,116.2
6192,114.6
6194,113.4
6196,111.6
6198,110.8
6200,111.6
6202,110.8
6204,111.6
6206,111.4
6208,111.2
6210,111.5
6212,111.6
6214,112.3
6216,112.3
6218,113.5
6220,113.3
6222,112.3
6224,110.3
6226,107.9
6228,105.3
6230,103.1
6232,100.2
6234,98.4
6236,103.1
6238,108.3
6240,113.3
6242,118.6
6244,123.8
6246,125.7
6248,123.8
6250,122.2
6252,121.0
6254,119.0
6256,118.0
6258,116.6
6260,114.0
6262,112.3
6264,109.4
6266,107.2
6268,105.8
6270,103.7
6272,106.9
6274,109.3
6276,113.1
6278,115.9
6280,119.0
6282,122.0
6284,123.1
6286,119.6
6288,117.8
6290,115.1
6292,112.6
6294,110.0
6296,109.1
6298,108.8
6300,109.1
6302,110.1
6304,110.3
6306,110.5
6308,109.9
6310,108.2
6312,106.1
6314,104.2
6316,103.2
6318,100.8
6320,99.6
6322,98.0
6324,95.7
6326,94.9
6328,93.4
6330,92.1
6332,90.1
6334,95.3
6336,100.4
6338,106.0
6340,111.6
6342,116.4
6344,117.9
6346,116.1
6348,113.6
6350,110.8
6352,109.5
6354,106.8
6356,106.0
6358,107.7
6360,109.3
6362,109.9
6364,111.3
6366,112.2
6368,113.3
6370,111.6
6372,110.5
6374,108.9
6376,106.5
6378,104.9
6380,103.1
6382,100.9
6384,99.5
6386,97.6
6388,95.6
6390,93.4
6392,91.5
6394,92.5
6396,97.2
6398,102.7
6400,107.3
6402,112.1
6404,116.9
6406,118.1
6408,116.7
6410,114.4
6412,112.3
6414,110.6
6416,109.0
6418,107.7
6420,107.1
6422,106.6
6424,105.8
6426,104.8
6428,103.5
6430,104.7
6432,106.5
6434,108.2
6436,110.6
6438,112.8
6440,114.9
6442,115.4
6444,113.2
6446,110.9
6448,108.1
6450,106.6
6452,104.3
6454,101.6
6456,102.2
6458,104.6
6460,107.2
6462,109.4
6464,112.4
6466,114.5
6468,115.0
6470,113.3
6472,112.4
6474,110.0
6476,108.3
6478,106.6
6480,105.1
6482,102.4
6484,100.4
6486,97.4
6488,94.9
6490,92.9
6492,90.3
6494,97.8
6496,104.9
6498,111.5
6500,119.0
6502,125.6
6504,127.9
6506,126.1
6508,123.7
6510,122.5
6512,119.8
6514,118.0
6516,116.3
6518,115.0
6520,114.2
6522,114.0
6524,112.6
6526,112.3
6528,111.3
6530,111.0
6532,111.4
6534,112.4
6536,113.1
6538,112.7
6540,113.9
6542,112.3
6544,109.3
6546,106.4
6548,103.3
6550,100.4
6552,97.1
6554,98.4
6556,103.9
6558,109.3
6560,115.4
6562,120.4
6564,126.3
6566,123.7
6568,121.5
6570,119.5
6572,117.2
6574,114.6
6576,111.9
6578,110.2
6580,108.6
6582,107.4
6584,105.6
6586,104.0
6588,102.4
6590,101.3
6592,104.5
6594,107.7
6596,111.1
6598,114.1
6600,118.4
6602,121.2
6604,118.8
6606,117.1
6608,114.5
6610,111.4
6612,109.0
6614,106.6
6616,106.6
6618,107.4
6620,109.6
6622,110.9
6624,111.8
6626,113.2
6628,112.6
6630,110.7
6632,109.6
6634,107.3
6636,105.6
6638,104.1
6640,101.9
6642,100.4
6644,98.6
6646,96.8
6648,94.6
6650,92.8
6652,90.4
6654,96.4
6656,101.6
6658,106.9
6660,113.2
6662,118.1
6664,123.4
6666,121.9
6668,120.4
6670,118.7
6672,117.1
6674,115.8
6676,113.5
6678,112.0
6680,110.1
6682,108.9
6684,106.5
6686,104.7
6688,103.4
6690,105.5
6692,107.6
6694,109.4
6696,111.6
6698,113.1
6700,114.7
6702,114.5
6704,111.9
6706,109.6
6708,107.2
6710,104.5
6712,102.1
6714,102.2
6716,105.1
6718,107.9
6720,110.3
6722,113.1
6724,116.1
6726,118.9
6728,116.0
6730,113.5
6732,111.3
6734,108.7
6736,105.6
6738,103.3
6740,101.8
6742,99.0
6744,97.8
6746,95.1
6748,93.5
6750,91.4
6752,93.0
6754,100.0
6756,105.6
6758,112.2
6760,117.6
6762,124.3
6764,122.2
6766,119.7
6768,117.2
6770,115.6
6772,113.3
6774,111.5
6776,111.8
6778,112.3
6780,112.9
6782,114.2
6784,115.2
6786,115.0
6788,116.4
6790,116.6
6792,115.8
6794,115.8
6796,116.4
6798,116.3
6800,115.8
6802,113.5
6804,110.2
6806,107.6
6808,104.6
6810,101.5
6812,98.2
6814,103.1
6816,108.5
6818,113.2
6820,118.9
6822,123.6
6824,125.7
6826,123.7
6828,122.3
6830,120.7
6832,119.5
6834,118.1
6836,115.8
6838,114.6
6840,112.6
6842,110.1
6844,108.5
6846,106.3
6848,104.0
6850,105.4
6852,108.8
6854,113.4
6856,117.3
6858,121.0
6860,124.6
6862,125.2
6864,122.8
6866,119.3
6868,116.4
6870,114.1
6872,111.1
6874,108.3
6876,109.3
6878,111.2
6880,112.1
6882,113.3
6884,114.5
6886,116.1
6888,115.3
6890,113.5
6892,112.5
6894,111.3
6896,109.6
6898,108.8
6900,105.3
6902,101.7
6904,97.7
6906,94.3
6908,91.8
6910,88.2
6912,94.3
6914,100.2
6916,105.2
6918,111.9
6920,117.5
6922,123.8
6924,124.9
6926,123.1
6928,121.4
6930,119.3
6932,117.0
6934,114.6
6936,112.9
6938,112.2
6940,110.4
6942,109.1
6944,107.9
6946,106.5
6948,106.9
6950,108.8
6952,111.2
6954,113.3
6956,115.3
6958,116.9
6960,118.7
6962,116.0
6964,113.1
6966,109.9
6968,107.0
6970,104.0
6972,101.0
6974,103.8
6976,106.0
6978,109.1
6980,112.0
6982,114.1
6984,117.8
6986,117.9
6988,115.5
6990,114.2
6992,112.1
6994,110.1
6996,107.8
6998,106.3
7000,104.1
7002,102.5
7004,100.3
7006,99.2
7008,97.5
7010,95.7
7012,100.7
7014,106.2
7016,111.2
7018,116.0
7020,121.8
7022,123.0
7024,121.2
7026,119.0
7028,116.9
7030,114.6
7032,112.3
7034,111.0
7036,111.7
7038,112.4
7040,112.5
7042,113.3
7044,112.9
7046,113.6
7048,113.7
7050,113.6
7052,113.3
7054,113.4
7056,114.0
7058,113.7
7060,111.5
7062,108.1
7064,105.1
7066,101.3
7068,98.5
7070,95.1
7072,95.6
7074,101.5
7076,106.7
7078,112.4
7080,118.5
7082,123.8
7084,125.8
7086,123.0
7088,121.0
7090,119.0
7092,116.9
7094,115.3
7096,112.7
7098,112.1
7100,110.8
7102,109.2
7104,107.7
7106,106.6
7108,106.9
7110,109.8
7112,111.9
7114,114.7
7116,116.8
7118,119.0
7120,121.6
7122,119.0
7124,117.0
7126,113.9
7128,112.3
7130,109.8
7132,107.5
7134,107.0
7136,109.5
7138,111.1
7140,113.7
7142,115.2
7144,117.5
7146,117.7
7148,115.4
7150,113.3
7152,111.6
7154,108.9
7156,107.2
7158,104.5
7160,103.2
7162,101.3
7164,98.9
7166,97.3
7168,95.5
7170,93.4
7172,98.6
7174,104.2
7176,110.1
7178,115.2
7180,121.2
7182,126.3
7184,124.7
7186,121.8
7188,119.6
7190,118.5
7192,116.2
7194,114.1
7196,113.3
7198,111.9
7200,110.9
7202,109.9
7204,109.4
7206,108.2
7208,110.5
7210,111.2
7212,112.9
7214,114.6
7216,116.1
7218,117.7
7220,117.2
7222,113.5
7224,110.3
7226,107.2
7228,103.5
7230,100.1
7232,100.4
7234,104.9
7236,109.7
7238,115.0
7240,119.3
7242,123.7
7244,122.4
7246,121.3
7248,119.7
7250,118.1
7252,117.0
7254,115.3
7256,113.8
7258,110.8
7260,108.1
7262,106.4
7264,103.5
7266,100.7
7268,98.3
7270,102.4
7272,107.9
7274,111.9
7276,117.2
7278,121.6
7280,122.2
7282,118.9
7284,116.7
7286,113.1
7288,110.0
7290,107.7
7292,106.5
7294,108.2
7296,109.6
7298,111.8
7300,112.8
7302,114.3
7304,116.0
7306,113.9
7308,112.1
7310,109.9
7312,108.0
7314,106.3
7316,104.8
7318,102.3
7320,101.2
7322,100.6
7324,99.2
7326,97.7
7328,96.0
7330,97.9
7332,102.4
7334,107.0
7336,112.0
7338,116.9
7340,121.4
7342,123.2
7344,121.1
7346,119.5
7348,118.2
7350,116.6
7352,114.4
7354,113.1
7356,111.5
7358,110.0
7360,109.4
7362,107.5
7364,106.5
7366,106.3
7368,106.9
7370,107.7
7372,108.8
7374,110.3
7376,110.8
7378,109.7
7380,106.8
7382,104.8
7384,101.7
7386,99.6
7388,97.2
7390,94.3
7392,95.7
7394,101.0
7396,106.6
7398,112.6
7400,118.7
7402,123.6
7404,122.3
7406,120.7
7408,118.4
7410,116.8
7412,115.2
7414,113.9
7416,111.7
7418,110.0
7420,108.1
7422,106.0
7424,104.3
7426,102.0
7428,102.9
7430,106.3
7432,109.6
7434,113.1
7436,116.7
7438,119.7
7440,120.5
7442,118.4
7444,116.8
7446,114.4
7448,112.8
7450,110.8
7452,109.0
7454,108.7
7456,109.6
7458,110.1
7460,110.7
7462,111.1
7464,111.2
7466,110.4
7468,109.2
7470,109.2
7472,107.7
7474,107.3
7476,106.6
7478,104.6
7480,101.8
7482,99.2
7484,97.3
7486,94.4
7488,91.4
7490,94.2
7492,100.8
7494,108.4
7496,114.9
7498,121.8
7500,128.7
7502,127.3
7504,125.4
7506,123.8
7508,121.7
7510,119.7
7512,117.8
7514,116.0
7516,114.9
7518,112.4
7520,111.5
7522,109.2
7524,107.2
7526,105.6
7528,108.0
7530,111.4
7532,113.7
7534,116.1
7536,119.0
7538,121.5
7540,119.3
7542,116.7
7544,113.8
7546,111.4
7548,108.8
7550,105.9
7552,108.5
7554,110.2
7556,113.3
7558,115.9
7560,117.4
7562,120.5
7564,120.5
7566,117.3
7568,115.0
7570,112.8
7572,110.2
7574,106.8
7576,104.8
7578,103.1
7580,100.7
7582,98.8
7584,96.6
7586,94.7
7588,93.2
7590,98.4
7592,103.5
7594,108.8
7596,113.5
7598,118.5
7600,123.4
7602,121.9
7604,120.3
7606,118.5
7608,116.6
7610,115.1
7612,113.9
7614,113.0
7616,112.4
7618,111.4
7620,110.3
7622,109.0
7624,108.6
7626,108.5
7628,109.3
7630,109.7
7632,110.2
7634,110.4
7636,111.3
7638,109.2
7640,106.9
7642,104.6
7644,102.3
7646,99.6
7648,98.0
7650,95.6
7652,101.0
7654,106.7
7656,112.9
7658,118.2
7660,123.7
7662,125.8
7664,123.8
7666,122.2
7668,120.3
7670,118.7
7672,117.2
7674,114.8
7676,113.5
7678,111.1
7680,109.5
7682,107.5
7684,105.5
7686,103.5
7688,107.3
7690,110.2
7692,113.9
7694,117.3
7696,120.2
7698,123.7
7700,121.3
7702,118.5
7704,116.1
7706,113.5
7708,111.2
7710,108.2
7712,109.9
7714,110.6
7716,112.0
7718,112.5
7720,114.0
7722,114.6
7724,116.4
7726,114.3
7728,113.2
7730,110.9
7732,109.4
7734,107.4
7736,106.0
7738,102.9
7740,99.8
7742,96.6
7744,93.5
7746,90.5
7748,88.4
7750,95.8
7752,103.3
7754,112.2
7756,119.3
7758,127.6
7760,130.7
7762,128.5
7764,126.0
7766,123.3
7768,121.4
7770,118.1
7772,116.7
7774,115.8
7776,115.1
7778,113.6
7780,112.7
7782,112.4
7784,111.5
7786,111.8
7788,113.4
7790,114.4
7792,115.4
7794,116.8
7796,117.8
7798,117.1
7800,114.3
7802,112.2
7804,109.3
7806,106.4
7808,103.4
7810,101.0
7812,103.7
7814,106.3
7816,108.5
7818,111.4
7820,113.6
7822,116.2
7824,114.8
7826,112.7
7828,110.9
7830,109.1
7832,107.6
7834,105.9
7836,103.7
7838,101.1
7840,98.5
7842,96.8
7844,93.9
7846,92.1
7848,93.0
7850,98.9
7852,104.5
7854,110.3
7856,115.2
7858,121.5
7860,123.1
7862,121.4
7864,119.7
7866,117.5
7868,116.2
7870,114.3
7872,113.1
7874,112.5
7876,111.5
7878,110.3
7880,109.4
7882,108.6
7884,108.2
7886,108.6
7888,108.2
7890,108.9
7892,108.2
7894,108.1
7896,108.9
7898,104.9
7900,101.6
7902,98.7
7904,95.2
7906,91.5
7908,87.5
7910,94.0
7912,100.4
7914,106.3
7916,111.5
7918,117.8
7920,123.7
7922,121.8
7924,120.7
7926,118.6
7928,116.9
7930,115.0
7932,113.7
7934,111.8
7936,110.5
7938,108.6
7940,107.8
7942,105.4
7944,104.2
7946,104.6
7948,107.5
7950,110.6
7952,113.5
7954,116.5
7956,119.9
7958,120.3
7960,117.1
7962,114.9
7964,112.4
7966,109.5
7968,107.1
7970,106.2
7972,107.8
7974,109.5
7976,111.5
7978,113.0
7980,114.5
7982,115.4
7984,114.7
7986,112.8
7988,110.6
7990,108.2
7992,106.2
7994,104.4
7996,101.9
7998,99.2
8000,97.2
8002,94.2
8004,92.1
8006,88.9
8008,91.2
8010,97.4
8012,104.3
8014,110.5
8016,117.0
8018,124.0
8020,122.1
8022,120.4
8024,119.6
8026,117.2
8028,116.1
8030,114.5
8032,112.8
8034,111.7
8036,110.0
8038,109.4
8040,107.6
8042,106.2
8044,106.7
8046,109.3
8048,111.2
8050,113.3
8052,115.0
8054,117.0
8056,118.8
8058,115.6
8060,111.7
8062,107.9
8064,104.7
8066,101.0
8068,97.0
8070,97.8
8072,102.4
8074,107.7
8076,111.9
8078,117.0
8080,121.3
8082,119.9
8084,117.6
8086,116.7
8088,114.5
8090,112.6
8092,110.8
8094,107.9
8096,105.0
8098,102.3
8100,99.5
8102,96.3
8104,93.1
8106,97.0
8108,101.3
8110,105.3
8112,108.7
8114,113.3
8116,116.7
8118,117.8
8120,115.4
8122,112.6
8124,109.5
8126,107.3
8128,104.3
8130,104.8
8132,106.4
8134,108.9
8136,111.3
8138,112.7
8140,115.0
8142,115.4
8144,113.2
8146,111.0
8148,108.8
8150,107.2
8152,105.5
8154,103.5
8156,100.9
8158,99.1
8160,96.8
8162,94.6
8164,92.9
8166,90.3
8168,96.6
8170,103.1
8172,108.8
8174,114.9
8176,120.4
8178,122.8
8180,121.1
8182,120.2
8184,118.7
8186,116.5
8188,115.0
8190,113.5
8192,113.0
8194,112.2
8196,111.5
8198,110.9
8200,109.5
8202,109.1
8204,108.8
8206,109.0
8208,110.0
8210,109.6
8212,110.7
8214,111.1
8216,110.2
8218,107.2
8220,104.5
8222,102.4
8224,99.7
8226,96.9
8228,98.0
8230,101.8
8232,106.4
8234,111.0
8236,114.8
8238,119.2
8240,121.1
8242,119.3
8244,117.8
8246,115.7
8248,114.8
8250,112.3
8252,111.1
8254,109.4
8256,108.0
8258,106.4
8260,104.5
8262,102.6
8264,100.7
8266,105.1
8268,109.4
8270,113.2
8272,117.9
8274,122.6
8276,126.7
8278,124.0
8280,120.9
8282,118.2
8284,115.0
8286,112.5
8288,109.9
8290,108.5
8292,108.7
8294,109.8
8296,110.0
8298,110.4
8300,110.6
8302,110.5
8304,109.3
8306,108.1
8308,107.0
8310,105.3
8312,105.0
8314,103.0
8316,101.4
8318,99.1
8320,97.5
8322,95.2
8324,93.8
8326,91.4
8328,93.9
8330,100.1
8332,106.4
8334,113.3
8336,120.0
8338,126.5
8340,124.8
8342,122.4
8344,120.6
8346,117.8
8348,116.1
8350,113.8
8352,112.6
8354,111.8
8356,110.3
8358,109.3
8360,107.9
8362,106.1
8364,107.0
8366,108.5
8368,110.6
8370,112.2
8372,113.2
8374,115.0
8376,114.6
8378,112.6
8380,109.9
8382,108.1
8384,105.6
8386,103.5
8388,100.6
8390,103.0
8392,104.7
8394,107.6
8396,109.1
8398,111.2
8400,113.4
8402,113.6
8404,112.5
8406,112.6
8408,112.3
8410,112.0
8412,111.0
8414,109.8
8416,108.5
8418,106.5
8420,105.3
8422,103.2
8424,101.6
8426,102.6
8428,107.3
8430,111.2
8432,116.0
8434,119.6
8436,124.8
8438,125.9
8440,124.0
8442,122.3
8444,121.2
8446,119.5
8448,118.1
8450,117.3
8452,115.7
8454,114.0
8456,113.0
8458,111.5
8460,110.9
8462,108.7
8464,110.0
8466,112.6
8468,114.5
8470,117.2
8472,119.9
8474,123.0
8476,122.4
8478,119.6
8480,116.7
8482,113.7
8484,110.4
8486,107.4
8488,106.9
8490,108.0
8492,110.2
8494,111.0
8496,112.7
8498,114.9
8500,116.0
8502,113.9
8504,111.9
8506,110.3
8508,108.7
8510,105.9
8512,103.9
8514,102.3
8516,100.6
8518,97.8
8520,96.3
8522,94.1
8524,91.4
8526,93.8
8528,99.7
8530,105.5
8532,111.4
8534,117.8
8536,123.8
8538,125.7
8540,123.8
8542,121.1
8544,119.3
8546,117.3
8548,114.5
8550,113.0
8552,113.0
8554,113.0
8556,112.0
8558,112.0
8560,110.8
8562,111.0
8564,111.2
8566,110.7
8568,111.5
8570,110.8
8572,111.5
8574,109.7
8576,108.3
8578,105.7
8580,102.9
8582,100.7
8584,98.5
8586,96.8
8588,98.3
8590,102.5
8592,107.3
8594,112.1
8596,116.7
8598,121.6
8600,119.7
8602,118.2
8604,116.7
8606,114.4
8608,112.3
8610,110.7
8612,109.2
8614,107.0
8616,105.6
8618,103.3
8620,101.2
8622,99.5
8624,99.6
8626,103.4
8628,105.9
8630,109.8
8632,113.4
8634,116.5
8636,114.2
8638,111.4
8640,109.4
8642,106.8
8644,104.5
8646,101.5
8648,102.0
8650,105.4
8652,107.9
8654,111.5
8656,114.6
8658,117.7
8660,117.2
8662,115.7
8664,112.4
8666,110.5
8668,108.5
8670,105.3
8672,102.9
8674,100.8
8676,99.1
8678,97.3
8680,94.4
8682,92.3
8684,90.6
8686,97.3
8688,104.8
8690,112.0
8692,118.8
8694,126.0
8696,127.9
8698,125.9
8700,122.9
8702,120.4
8704,118.6
8706,115.6
8708,114.1
8710,113.1
8712,112.6
8714,111.1
8716,110.5
8718,109.9
8720,108.6
8722,108.3
8724,108.0
8726,107.9
8728,107.2
8730,106.2
8732,106.1
8734,104.9
8736,102.3
8738,100.5
8740,98.2
8742,95.9
8744,94.2
8746,95.3
8748,100.9
8750,105.6
8752,111.3
8754,115.9
8756,121.7
8758,122.6
8760,121.4
8762,119.5
8764,117.7
8766,116.2
8768,114.9
8770,113.1
8772,110.5
8774,108.4
8776,107.0
8778,104.9
8780,102.5
8782,101.1
8784,104.8
8786,108.9
8788,112.5
8790,116.6
8792,120.2
8794,124.8
8796,124.4
8798,121.6
8800,118.2
8802,114.7
8804,110.6
8806,107.4
8808,106.7
8810,108.6
8812,110.6
8814,111.8
8816,114.0
8818,115.0
8820,115.3
8822,113.4
8824,112.5
8826,110.3
8828,108.8
8830,107.8
8832,105.9
8834,102.6
8836,99.9
8838,97.6
8840,94.6
8842,91.7
8844,89.4
8846,90.4
8848,96.4
8850,101.8
8852,107.3
8854,112.8
8856,118.5
8858,117.5
8860,116.9
8862,116.7
8864,115.7
8866,114.4
8868,113.8
8870,112.6
8872,111.6
8874,109.8
8876,108.7
8878,107.5
8880,106.0
8882,106.4
8884,108.2
8886,109.6
8888,110.1
8890,111.7
8892,112.9
8894,112.2
8896,109.2
8898,105.7
8900,103.5
8902,100.6
8904,97.3
8906,97.9
8908,102.2
8910,106.3
8912,110.5
8914,115.3
8916,119.1
8918,124.2
8920,121.7
8922,119.5
8924,117.3
8926,115.8
8928,112.9
8930,110.8
8932,108.6
8934,107.0
8936,105.1
8938,102.2
8940,100.8
8942,98.0
8944,102.1
8946,105.2
8948,109.4
8950,113.3
8952,117.0
8954,117.4
8956,115.6
8958,113.3
8960,110.5
8962,108.3
8964,106.1
8966,103.1
8968,106.1
8970,107.9
8972,110.8
8974,112.5
8976,115.0
8978,117.6
8980,117.7
8982,115.9
8984,113.9
8986,110.9
8988,108.9
8990,106.8
8992,104.7
8994,102.3
8996,100.3
8998,97.9
9000,94.8
9002,92.8
9004,90.6
9006,96.5
9008,102.3
9010,108.6
9012,114.7
9014,120.6
9016,123.3
9018,121.2
9020,119.7
9022,118.0
9024,116.6
9026,114.2
9028,112.9
9030,112.2
9032,111.5
9034,110.5
9036,110.1
9038,108.7
9040,108.5
9042,109.5
9044,110.6
9046,111.5
9048,112.1
9050,112.6
9052,113.6
9054,112.6
9056,109.6
9058,107.3
9060,104.9
9062,101.9
9064,99.6
9066,101.0
9068,106.6
9070,111.8
9072,118.0
9074,123.8
9076,128.7
9078,126.6
9080,123.9
9082,121.5
9084,120.1
9086,117.2
9088,114.7
9090,112.4
9092,111.0
9094,108.1
9096,106.4
9098,103.8
9100,101.4
9102,102.8
9104,105.6
9106,109.9
9108,113.0
9110,117.0
9112,120.6
9114,124.1
9116,120.9
9118,119.0
9120,116.7
9122,113.4
9124,110.8
9126,108.8
9128,109.0
9130,110.3
9132,111.2
9134,111.2
9136,112.6
9138,113.4
9140,112.9
9142,112.1
9144,110.1
9146,109.0
9148,108.2
9150,106.2
9152,104.5
9154,100.4
9156,97.3
9158,93.5
9160,90.7
9162,87.4
9164,89.0
9166,95.5
9168,101.6
9170,108.1
9172,114.3
9174,121.1
9176,123.5
9178,122.5
9180,120.7
9182,119.8
9184,118.8
9186,117.1
9188,115.9
9190,115.0
9192,112.7
9194,110.7
9196,109.2
9198,107.5
9200,106.0
9202,108.9
9204,111.6
9206,113.8
9208,116.4
9210,118.6
9212,121.8
9214,118.3
9216,115.5
9218,113.6
9220,110.7
9222,107.4
9224,105.0
9226,104.7
9228,107.1
9230,109.6
9232,112.0
9234,115.0
9236,117.5
9238,117.6
9240,115.0
9242,113.3
9244,110.6
9246,108.5
9248,105.4
9250,103.5
9252,101.4
9254,98.5
9256,95.9
9258,93.6
9260,91.2
9262,89.0
9264,90.8
9266,96.8
9268,103.3
9270,108.8
9272,115.1
9274,121.6
9276,119.8
9278,118.6
9280,117.3
9282,115.8
9284,115.0
9286,113.2
9288,112.2
9290,111.6
9292,110.2
9294,108.2
9296,107.0
9298,105.9
9300,106.2
9302,106.2
9304,105.5
9306,105.5
9308,105.8
9310,106.3
9312,106.3
9314,102.5
9316,100.0
9318,96.6
9320,94.1
9322,91.3
9324,87.9
9326,94.0
9328,101.1
9330,107.4
9332,114.4
9334,120.5
9336,123.3
9338,120.7
9340,118.6
9342,116.8
9344,114.6
9346,112.9
9348,111.3
9350,108.6
9352,106.4
9354,104.3
9356,102.1
9358,100.7
9360,98.6
9362,100.6
9364,104.1
9366,106.9
9368,110.0
9370,112.1
9372,111.9
9374,108.9
9376,106.1
9378,102.8
9380,99.4
9382,96.0
9384,93.3
9386,97.7
9388,101.6
9390,106.1
9392,110.1
9394,114.5
9396,118.8
9398,117.8
9400,116.7
9402,114.9
9404,113.5
9406,112.3
9408,110.7
9410,108.7
9412,106.4
9414,104.6
9416,102.2
9418,100.2
9420,98.5
9422,101.4
9424,105.2
9426,108.9
9428,112.0
9430,115.1
9432,118.6
9434,116.5
9436,114.1
9438,111.3
9440,109.3
9442,107.0
9444,104.4
9446,104.4
9448,105.5
9450,107.5
9452,109.7
9454,110.9
9456,112.9
9458,112.8
9460,110.9
9462,109.8
9464,107.5
9466,105.7
9468,104.7
9470,102.3
9472,99.4
9474,96.0
9476,93.3
9478,91.1
9480,87.9
9482,85.1
9484,92.2
9486,98.3
9488,104.6
9490,111.1
9492,118.1
9494,120.4
9496,118.5
9498,115.6
9500,113.6
9502,111.8
9504,109.4
9506,108.1
9508,107.8
9510,106.7
9512,105.9
9514,105.7
9516,104.1
9518,104.2
9520,103.8
9522,104.7
9524,105.9
9526,106.4
9528,107.2
9530,107.8
9532,107.4
9534,104.7
9536,101.8
9538,99.7
9540,97.1
9542,94.3
9544,95.2
9546,100.8
9548,105.5
9550,110.7
9552,116.2
9554,121.0
9556,119.6
9558,118.4
9560,116.5
9562,115.6
9564,113.9
9566,112.0
9568,110.8
9570,109.1
9572,107.0
9574,105.8
9576,103.6
9578,102.6
9580,100.8
9582,103.8
9584,107.4
9586,111.6
9588,114.3
9590,117.6
9592,121.1
9594,119.0
9596,117.0
9598,114.5
9600,111.8
9602,109.2
9604,106.6
9606,106.5
9608,108.2
9610,109.4
9612,110.4
9614,111.8
9616,113.0
9618,113.1
9620,111.8
9622,110.6
9624,109.2
9626,108.3
9628,106.5
9630,104.1
9632,101.8
9634,99.5
9636,97.0
9638,94.4
9640,92.0
9642,92.7
9644,97.8
9646,102.6
9648,107.0
9650,111.8
9652,116.3
9654,121.3
9656,120.4
9658,119.2
9660,117.6
9662,116.1
9664,115.2
9666,113.9
9668,111.8
9670,110.6
9672,108.1
9674,106.3
9676,104.7
9678,103.1
9680,106.1
9682,108.1
9684,110.3
9686,112.8
9688,115.1
9690,117.4
9692,116.9
9694,114.5
9696,110.9
9698,108.6
9700,105.0
9702,102.5
9704,102.3
9706,104.0
9708,106.3
9710,109.5
9712,111.4
9714,114.0
9716,115.7
9718,114.4
9720,113.0
9722,111.8
9724,109.6
9726,108.6
9728,106.9
9730,104.0
9732,101.2
9734,98.1
9736,95.3
9738,92.5
9740,89.3
9742,91.2
9744,98.6
9746,105.5
9748,112.5
9750,119.5
9752,126.2
9754,124.1
9756,121.3
9758,118.7
9760,115.9
9762,113.8
9764,111.2
9766,110.6
9768,110.7
9770,110.3
9772,109.2
9774,109.4
9776,108.8
9778,109.0
9780,108.2
9782,108.3
9784,108.4
9786,108.3
9788,108.7
9790,108.5
9792,105.2
9794,102.5
9796,99.9
9798,96.8
9800,93.5
9802,90.3
9804,95.3
9806,101.2
9808,106.2
9810,111.2
9812,116.6
9814,121.0
9816,119.9
9818,117.7
9820,115.9
9822,114.5
9824,112.7
9826,111.5
9828,108.8
9830,107.1
9832,104.9
9834,102.7
9836,100.8
9838,98.1
9840,100.2
9842,102.2
9844,104.4
9846,107.2
9848,108.9
9850,110.9
9852,108.4
9854,106.3
9856,104.2
9858,101.3
9860,99.4
9862,96.9
9864,98.2
9866,102.4
9868,107.5
9870,111.7
9872,116.6
9874,121.6
9876,119.4
9878,116.8
9880,115.3
9882,112.4
9884,110.7
9886,109.0
9888,106.5
9890,104.8
9892,102.6
9894,100.8
9896,98.7
9898,96.8
9900,97.3
9902,101.6
9904,105.0
9906,109.6
9908,112.7
9910,116.6
9912,117.9
9914,114.7
9916,112.2
9918,110.0
9920,106.9
9922,104.3
9924,104.2
9926,105.7
9928,107.4
9930,108.9
9932,111.0
9934,112.7
9936,112.6
9938,112.0
9940,110.8
9942,109.1
9944,108.1
9946,107.5
9948,106.0
9950,104.1
9952,102.4
9954,100.5
9956,99.3
9958,97.7
9960,96.0
9962,101.9
9964,108.5
9966,115.0
9968,121.7
9970,128.3
9972,130.9
9974,128.6
9976,127.5
9978,124.9
9980,122.9
9982,121.9
9984,119.9
9986,118.2
9988,117.6
9990,116.4
9992,115.5
9994,114.9
9996,114.0
9998,113.8
10000,113.4
10002,113.9
10004,114.0
10006,113.4
10008,113.2
10010,113.0
10012,112.2
10014,110.9
10016,109.7
10018,108.2
10020,106.8
10022,105.9
10024,106.7
10026,108.4
10028,108.9
10030,110.1
10032,111.5
10034,112.6
10036,113.8
10038,114.4
10040,115.6
10042,116.2
10044,117.0
10046,117.5
10048,118.2
10050,118.9
10052,117.6
10054,116.3
10056,115.3
10058,113.6
10060,112.4
10062,112.0
10064,110.5
10066,110.6
10068,110.3
10070,109.5
10072,109.8
10074,108.7
10076,109.1
10078,109.8
10080,111.2
10082,113.1
10084,115.3
10086,117.3
10088,119.2
10090,121.9
10092,119.9
10094,119.4
10096,117.5
10098,117.1
10100,115.2
10102,114.2
10104,113.1
10106,111.3
10108,110.6
10110,108.7
10112,107.6
10114,106.2
10116,104.9
10118,103.0
10120,106.2
10122,109.4
10124,112.7
10126,115.7
10128,119.6
10130,122.3
10132,123.4
10134,122.0
10136,120.7
10138,119.8
10140,118.4
10142,117.2
10144,116.2
10146,113.3
10148,110.8
10150,107.1
10152,104.4
10154,101.1
10156,98.4
10158,95.8
10160,100.9
10162,106.8
10164,112.3
10166,117.5
10168,123.9
10170,129.0
10172,127.5
10174,125.3
10176,124.0
10178,121.5
10180,119.8
10182,118.3
10184,116.0
10186,114.2
10188,113.0
10190,110.8
10192,109.1
10194,107.2
10196,105.6
10198,103.8
10200,106.6
10202,109.5
10204,112.4
10206,116.1
10208,119.5
10210,122.3
10212,123.0
10214,121.9
10216,120.9
10218,120.1
10220,118.2
10222,117.5
10224,116.5
10226,113.9
10228,110.3
10230,108.3
10232,105.2
10234,102.6
10236,99.1
10238,100.2
10240,104.4
10242,108.1
10244,112.3
10246,116.4
10248,120.5
10250,124.0
10252,125.6
10254,123.8
10256,123.0
10258,121.4
10260,119.2
10262,117.5
10264,115.9
10266,114.2
10268,112.6
10270,110.3
10272,107.9
10274,105.9
10276,104.1
10278,105.4
10280,108.5
10282,111.7
10284,114.8
10286,118.7
10288,121.4
10290,125.2
10292,125.9
10294,123.5
10296,122.0
10298,119.4
10300,117.8
10302,115.3
10304,113.7
10306,110.8
10308,108.1
10310,105.4
10312,103.2
10314,100.9
10316,98.1
10318,95.4
10320,101.6
10322,107.1
10324,111.9
10326,117.7
10328,123.5
10330,129.2
10332,130.6
10334,129.0
10336,126.4
10338,124.6
10340,123.0
10342,120.9
10344,119.1
10346,115.6
10348,112.9
10350,110.0
10352,107.4
10354,104.5
10356,102.2
10358,103.0
10360,107.6
10362,111.7
10364,115.8
10366,120.8
10368,124.6
10370,129.9
10372,130.3
10374,129.0
10376,127.5
10378,125.3
10380,123.5
10382,121.7
10384,119.3
10386,118.2
10388,116.8
10390,115.3
10392,113.2
10394,111.5
10396,110.3
10398,108.5
10400,111.6
10402,114.8
10404,118.1
10406,121.7
10408,124.7
10410,127.9
10412,131.3
10414,129.4
10416,125.7
10418,123.0
10420,120.6
10422,117.6
10424,115.5
10426,112.5
10428,108.9
10430,105.7
10432,102.5
10434,99.0
10436,96.1
10438,92.7
10440,99.0
10442,105.8
10444,111.7
10446,118.0
10448,124.7
10450,131.0
10452,132.6
10454,129.8
10456,127.5
10458,124.9
10460,122.9
10462,120.5
10464,117.4
10466,114.5
10468,111.7
10470,108.4
10472,104.8
10474,101.5
10476,98.7
10478,95.7
10480,100.0
10482,104.8
10484,109.6
10486,114.2
10488,119.1
10490,124.1
10492,122.1
10494,119.9
10496,118.0
10498,116.9
10500,114.7
10502,112.5
10504,110.9
10506,109.2
10508,106.9
10510,104.8
10512,102.3
10514,100.0
10516,97.7
10518,95.3
10520,101.3
10522,106.9
10524,112.0
10526,118.3
10528,123.4
10530,128.6
10532,127.1
10534,125.8
10536,124.0
10538,121.7
10540,120.3
10542,118.4
10544,116.5
10546,114.2
10548,111.3
10550,109.3
10552,106.8
10554,104.6
10556,101.7
10558,103.2
10560,107.8
10562,111.5
10564,116.5
10566,120.3
10568,124.4
10570,128.7
10572,127.3
10574,125.0
10576,122.7
10578,121.0
10580,118.7
10582,116.7
10584,115.1
10586,112.5
10588,109.8
10590,106.8
10592,104.4
10594,100.9
10596,98.1
10598,95.2
10600,101.2
10602,106.9
10604,112.6
10606,117.8
10608,123.0
10610,129.2
10612,127.8
10614,125.2
10616,123.3
10618,121.5
10620,119.8
10622,117.8
10624,116.0
10626,113.6
10628,110.5
10630,107.8
10632,104.7
10634,102.8
10636,99.5
10638,100.2
10640,104.3
10642,109.2
10644,113.8
10646,117.3
10648,121.8
10650,126.1
10652,125.0
10654,123.8
10656,121.7
10658,120.0
10660,118.8
10662,117.2
10664,114.7
10666,112.0
10668,109.6
10670,107.5
10672,104.8
10674,102.2
10676,99.8
10678,100.6
10680,105.8
10682,110.6
10684,116.6
10686,121.5
10688,126.3
10690,127.7
10692,126.3
10694,124.4
10696,122.3
10698,119.9
10700,118.6
10702,116.5
10704,114.3
10706,112.2
10708,110.4
10710,108.4
10712,106.0
10714,103.8
10716,101.7
10718,103.7
10720,108.7
10722,113.2
10724,118.4
10726,124.3
10728,129.4
10730,134.7
10732,131.8
10734,129.7
10736,127.4
10738,124.5
10740,122.0
10742,120.5
10744,116.9
10746,114.5
10748,111.6
10750,108.7
10752,105.3
10754,102.8
10756,99.4
10758,101.1
10760,105.6
10762,111.3
10764,116.5
10766,121.1
10768,126.3
10770,128.6
10772,126.5
10774,125.1
10776,123.9
10778,122.9
10780,121.1
10782,119.4
10784,117.8
10786,114.3
10788,111.4
10790,108.4
10792,105.4
10794,102.4
10796,99.9
10798,100.3
10800,106.1
10802,110.8
10804,116.1
10806,121.0
10808,126.6
10810,128.5
10812,126.6
10814,124.8
10816,123.3
10818,122.3
10820,120.2
10822,119.1
10824,116.6
10826,114.5
10828,113.1
10830,110.8
10832,108.4
10834,107.4
10836,107.1
10838,110.4
10840,113.5
10842,116.7
10844,120.1
10846,122.4
10848,126.4
10850,129.2
10852,127.2
10854,124.7
10856,122.4
10858,119.7
10860,117.1
10862,114.8
10864,112.5
10866,109.5
10868,107.0
10870,103.5
10872,101.5
10874,98.1
10876,96.0
10878,100.8
10880,106.3
10882,112.6
10884,118.1
10886,123.6
10888,129.4
10890,130.3
10892,128.4
10894,125.6
10896,123.4
10898,120.9
10900,118.1
10902,116.3
10904,113.9
10906,110.7
10908,108.9
10910,105.9
10912,103.0
10914,100.9
10916,97.9
10918,102.1
10920,107.1
10922,110.9
10924,115.2
10926,120.2
10928,123.9
10930,126.2
10932,125.0
10934,123.2
10936,122.4
10938,120.8
10940,120.1
10942,118.4
10944,116.5
10946,113.0
10948,110.7
10950,107.4
10952,104.7
10954,102.1
10956,103.3
10958,108.5
10960,112.3
10962,117.0
10964,122.1
10966,126.9
10968,132.2
10970,133.5
10972,131.3
10974,128.3
10976,126.4
10978,124.5
10980,121.9
10982,120.1
10984,117.0
10986,113.9
10988,111.2
10990,107.5
10992,105.0
10994,101.2
10996,97.7
10998,102.7
11000,107.4
11002,112.5
11004,116.8
11006,122.1
11008,127.1
11010,128.0
11012,125.8
11014,124.0
11016,122.4
11018,120.3
11020,117.8
11022,116.2
11024,113.8
11026,111.3
11028,108.7
11030,107.2
11032,104.0
11034,101.7
11036,102.3
11038,106.4
11040,109.9
11042,113.4
11044,117.3
11046,121.2
11048,124.4
11050,126.0
11052,123.6
11054,121.6
11056,120.6
11058,118.6
11060,116.3
11062,115.0
11064,111.9
11066,108.2
11068,105.1
11070,101.5
11072,97.4
11074,94.2
11076,90.4
11078,96.0
11080,103.0
11082,108.5
11084,114.6
11086,120.6
11088,126.6
11090,124.5
11092,123.3
11094,121.1
11096,119.4
11098,117.3
11100,115.3
11102,113.3
11104,111.3
11106,108.9
11108,107.2
11110,105.2
11112,102.4
11114,100.2
11116,98.4
11118,102.6
11120,108.1
11122,112.2
11124,116.7
11126,121.5
11128,126.9
11130,124.4
11132,123.0
11134,120.7
11136,118.9
11138,117.7
11140,115.2
11142,113.2
11144,110.9
11146,108.5
11148,105.2
11150,102.2
11152,100.3
11154,97.2
11156,99.2
11158,105.5
11160,111.9
11162,118.0
11164,124.4
11166,131.2
11168,133.4
11170,131.6
11172,129.1
11174,126.8
11176,124.9
11178,123.0
11180,120.8
11182,119.1
11184,116.5
11186,113.6
11188,111.8
11190,109.5
11192,107.4
11194,104.5
11196,105.3
11198,108.7
11200,112.3
11202,115.4
11204,119.8
11206,123.4
11208,126.5
11210,125.1
11212,123.1
11214,122.2
11216,120.5
11218,119.4
11220,117.2
11222,116.4
11224,112.8
11226,110.0
11228,106.8
11230,103.2
11232,100.3
11234,97.5
11236,98.1
11238,102.3
11240,107.4
11242,112.1
11244,117.1
11246,121.9
11248,126.0
11250,124.6
11252,122.8
11254,120.9
11256,118.2
11258,116.5
11260,114.6
11262,112.8
11264,111.9
11266,110.5
11268,109.4
11270,108.9
11272,107.3
11274,106.7
11276,107.6
11278,112.5
11280,116.7
11282,121.4
11284,125.8
11286,129.7
11288,134.3
11290,131.2
11292,128.7
11294,125.5
11296,123.1
11298,120.0
11300,118.0
11302,114.9
11304,112.7
11306,110.1
11308,107.6
11310,105.1
11312,103.4
11314,100.9
11316,97.8
11318,104.4
11320,110.1
11322,115.7
11324,122.2
11326,127.8
11328,133.9
11330,132.0
11332,129.2
11334,127.5
11336,124.9
11338,122.7
11340,120.1
11342,117.7
11344,114.2
11346,111.5
11348,108.5
11350,106.0
11352,102.3
11354,99.7
11356,101.0
11358,105.8
11360,111.4
11362,116.1
11364,121.0
11366,126.6
11368,128.3
11370,126.4
11372,125.0
11374,123.6
11376,122.7
11378,121.4
11380,119.6
11382,117.3
11384,115.5
11386,113.7
11388,111.3
11390,108.7
11392,106.3
11394,104.9
11396,106.1
11398,110.1
11400,115.6
11402,119.6
11404,124.3
11406,129.7
11408,134.2
11410,131.3
11412,129.1
11414,126.2
11416,122.7
11418,120.5
11420,117.9
11422,115.0
11424,112.8
11426,110.0
11428,106.8
11430,104.3
11432,102.4
11434,100.0
11436,100.2
11438,104.9
11440,110.3
11442,114.4
11444,119.2
11446,124.7
11448,129.4
11450,127.5
11452,125.3
11454,123.0
11456,121.6
11458,119.0
11460,117.0
11462,115.4
11464,112.8
11466,110.7
11468,107.6
11470,106.0
11472,103.3
11474,101.0
11476,104.9
11478,108.0
11480,112.0
11482,115.6
11484,119.4
11486,123.2
11488,126.7
11490,123.7
11492,121.4
11494,119.8
11496,117.5
11498,115.1
11500,111.8
11502,109.5
11504,106.9
11506,104.0
11508,100.4
11510,98.0
11512,94.6
11514,92.0
11516,93.2
11518,99.0
11520,104.9
11522,111.7
11524,117.5
11526,123.6
11528,129.1
11530,126.2
11532,123.4
11534,120.9
11536,117.9
11538,115.5
11540,112.8
11542,110.3
11544,107.3
11546,105.2
11548,102.5
11550,99.9
11552,98.2
11554,95.6
11556,100.6
11558,104.7
11560,110.4
11562,115.1
11564,119.3
11566,124.5
11568,125.1
11570,123.4
11572,121.4
11574,119.1
11576,116.9
11578,114.4
11580,112.5
11582,110.3
11584,107.8
11586,105.8
11588,104.4
11590,102.3
11592,100.2
11594,98.6
11596,103.5
11598,108.4
11600,113.6
11602,118.9
11604,124.2
11606,129.2
11608,130.5
11610,128.3
11612,125.9
11614,123.7
11616,120.5
11618,118.8
11620,116.2
11622,113.4
11624,111.6
11626,109.3
11628,106.7
11630,104.6
11632,101.8
11634,102.2
11636,105.8
11638,109.3
11640,113.0
11642,116.6
11644,119.9
11646,122.7
11648,126.4
11650,124.2
11652,122.7
11654,120.3
11656,118.6
11658,116.9
11660,114.9
11662,111.9
11664,108.8
11666,105.9
11668,102.7
11670,99.0
11672,96.6
11674,93.1
11676,98.6
11678,103.9
11680,109.7
11682,115.2
11684,120.7
11686,126.6
11688,124.3
11690,122.5
11692,120.3
11694,117.4
11696,115.1
11698,113.6
11700,111.6
11702,108.9
11704,105.5
11706,103.1
11708,100.4
11710,98.6
11712,95.8
11714,93.1
11716,98.7
11718,104.0
11720,109.9
11722,114.9
11724,121.1
11726,126.7
11728,124.8
11730,122.7
11732,121.3
11734,119.4
11736,117.0
11738,115.2
11740,113.8
11742,110.7
11744,107.8
11746,105.0
11748,102.2
11750,99.8
11752,97.1
11754,97.9
11756,103.5
11758,108.3
11760,113.4
11762,118.5
11764,124.2
11766,126.1
11768,123.9
11770,121.8
11772,120.3
11774,118.5
11776,117.5
11778,115.0
11780,114.2
11782,111.0
11784,108.1
11786,105.7
11788,102.1
11790,100.1
11792,96.6
11794,98.1
11796,102.1
11798,105.9
11800,111.0
11802,114.5
11804,118.9
11806,121.1
11808,119.7
11810,119.0
11812,117.7
11814,116.6
11816,115.1
11818,113.9
11820,113.2
11822,110.3
11824,108.8
11826,106.5
11828,104.5
11830,102.9
11832,101.1
11834,104.4
11836,107.8
11838,110.5
11840,114.0
11842,116.8
11844,120.8
11846,123.7
11848,122.0
11850,119.6
11852,118.3
11854,116.3
11856,114.4
11858,111.6
11860,110.3
11862,107.0
11864,104.5
11866,101.8
11868,99.3
11870,97.0
11872,94.1
11874,96.0
11876,102.3
11878,108.4
11880,114.3
11882,120.2
11884,125.7
11886,128.2
11888,125.1
11890,122.9
11892,120.4
11894,118.6
11896,115.9
11898,113.9
11900,111.8
11902,110.2
11904,108.5
11906,106.4
11908,105.0
11910,103.5
11912,101.7
11914,102.4
11916,106.9
11918,110.5
11920,114.2
11922,118.2
11924,122.5
11926,126.3
11928,124.7
11930,122.3
11932,120.9
11934,118.4
11936,116.8
11938,115.0
11940,112.3
11942,109.4
11944,107.3
11946,105.1
11948,102.5
11950,99.2
11952,97.1
11954,98.0
11956,103.0
11958,108.6
11960,113.6
11962,118.8
11964,124.3
11966,125.4
11968,123.9
11970,121.8
11972,119.6
11974,118.1
11976,116.9
11978,114.6
11980,112.2
11982,110.6
11984,108.6
11986,106.4
11988,103.8
11990,101.4
11992,99.4
11994,100.7
11996,105.0
11998,109.2
12000,113.1
12002,117.1
12004,121.8
12006,122.6
12008,120.5
12010,119.0
12012,117.2
12014,115.4
12016,113.4
12018,111.5
12020,109.5
12022,107.6
12024,105.1
12026,103.9
12028,101.5
12030,99.6
12032,97.9
12034,103.3
12036,108.0
12038,112.9
12040,117.7
12042,122.4
12044,126.4
12046,128.7
12048,127.1
12050,125.5
12052,123.2
12054,121.6
12056,120.8
12058,118.5
12060,115.9
12062,113.2
12064,110.1
12066,107.2
12068,105.4
12070,102.6
12072,103.0
12074,106.1
12076,109.7
12078,113.6
12080,117.3
12082,120.5
12084,124.9
12086,126.2
12088,124.2
12090,122.4
12092,120.8
12094,119.0
12096,117.6
12098,116.2
12100,113.6
12102,111.1
12104,108.8
12106,105.6
12108,102.9
12110,100.3
12112,97.8
12114,102.6
12116,107.2
12118,111.6
12120,115.8
12122,119.9
12124,124.0
12126,125.4
12128,123.4
12130,121.9
12132,119.6
12134,117.4
12136,115.5
12138,113.3
12140,111.3
12142,107.7
12144,104.9
12146,102.2
12148,100.1
12150,97.0
12152,97.9
12154,102.0
12156,106.1
12158,111.2
12160,114.9
12162,119.1
12164,124.0
12166,122.0
12168,120.6
12170,119.8
12172,118.1
12174,116.4
12176,115.0
12178,113.9
12180,111.7
12182,110.1
12184,109.1
12186,107.5
12188,106.2
12190,104.1
12192,104.6
12194,108.4
12196,111.8
12198,114.6
12200,118.3
12202,121.2
12204,125.2
12206,126.0
12208,124.1
12210,123.0
12212,121.4
12214,119.0
12216,117.7
12218,116.3
12220,112.6
12222,109.7
12224,106.5
12226,104.0
12228,100.3
12230,97.4
12232,97.9
12234,102.4
12236,107.8
12238,111.7
12240,116.5
12242,121.6
12244,126.7
12246,124.9
12248,123.1
12250,121.9
12252,120.4
12254,118.6
12256,117.7
12258,115.8
12260,113.2
12262,110.8
12264,108.1
12266,104.9
12268,102.2
12270,99.3
12272,100.8
12274,104.3
12276,108.6
12278,113.1
12280,117.2
12282,121.4
12284,122.6
12286,121.3
12288,119.4
12290,117.7
12292,115.9
12294,113.7
12296,112.4
12298,110.4
12300,108.6
12302,106.7
12304,104.5
12306,102.6
12308,100.9
12310,98.7
12312,100.3
12314,104.2
12316,108.4
12318,113.6
12320,117.7
12322,121.8
12324,122.8
12326,121.2
12328,119.7
12330,117.7
12332,115.8
12334,113.8
12336,111.9
12338,110.5
12340,109.2
12342,107.1
12344,105.4
12346,103.9
12348,102.3
12350,101.3
12352,103.8
12354,106.2
12356,109.0
12358,111.8
12360,114.2
12362,117.4
12364,118.4
12366,116.9
12368,115.1
12370,114.2
12372,112.8
12374,111.0
12376,110.0
12378,108.6
12380,106.5
12382,103.4
12384,101.1
12386,99.0
12388,96.2
12390,94.2
12392,95.7
12394,99.8
12396,104.9
12398,110.1
12400,114.3
12402,119.0
12404,120.7
12406,118.9
12408,117.4
12410,116.4
12412,114.7
12414,113.1
12416,111.4
12418,110.3
12420,107.1
12422,105.4
12424,102.6
12426,100.5
12428,97.7
12430,95.3
12432,99.2
12434,102.9
12436,106.0
12438,109.8
12440,113.4
12442,116.7
12444,118.1
12446,116.1
12448,114.8
12450,112.9
12452,111.7
12454,109.9
12456,108.5
12458,107.0
12460,106.0
12462,104.1
12464,102.9
12466,100.9
12468,99.5
12470,97.8
12472,101.6
12474,105.2
12476,108.8
12478,112.0
12480,115.5
12482,118.5
12484,116.8
12486,115.9
12488,113.7
12490,112.1
12492,111.3
12494,109.8
12496,108.1
12498,106.8
12500,106.3
12502,104.6
12504,103.8
12506,102.7
12508,102.2
12510,101.2
12512,104.1
12514,106.7
12516,110.3
12518,113.2
12520,117.0
12522,119.5
12524,120.2
12526,119.2
12528,117.4
12530,116.2
12532,113.8
12534,113.0
12536,110.6
12538,108.4
12540,106.6
12542,104.2
12544,102.3
12546,99.6
12548,97.3
12550,95.8
12552,99.6
12554,104.4
12556,108.7
12558,112.4
12560,117.4
12562,121.2
12564,120.2
12566,118.8
12568,118.4
12570,117.1
12572,115.9
12574,115.3
12576,113.5
12578,111.9
12580,109.5
12582,107.5
12584,105.3
12586,103.1
12588,100.0
12590,98.5
12592,101.9
12594,105.2
12596,108.3
12598,112.4
12600,115.1
12602,118.8
12604,117.6
12606,116.1
12608,115.5
12610,113.7
12612,113.1
12614,112.0
12616,110.2
12618,108.9
12620,106.8
12622,105.9
12624,104.4
12626,102.0
12628,101.0
12630,103.2
12632,105.6
12634,108.2
12636,110.4
12638,112.9
12640,114.9
12642,117.5
12644,118.6
12646,116.6
12648,115.9
12650,114.3
12652,113.8
12654,112.4
12656,111.0
12658,108.1
12660,105.5
12662,103.2
12664,100.0
12666,97.2
12668,94.7
12670,95.7
12672,101.3
12674,106.8
12676,112.1
12678,118.2
12680,123.9
12682,129.5
12684,127.5
12686,125.1
12688,122.9
12690,121.3
12692,119.6
12694,117.4
12696,115.3
12698,113.6
12700,111.9
12702,110.2
12704,108.2
12706,106.1
12708,104.1
12710,104.7
12712,107.1
12714,110.3
12716,112.4
12718,114.9
12720,117.4
12722,120.3
12724,120.8
12726,119.3
12728,118.8
12730,117.1
12732,116.0
12734,114.6
12736,113.8
12738,111.5
12740,109.3
12742,106.1
12744,104.6
12746,102.0
12748,99.2
12750,99.9
12752,103.9
12754,108.5
12756,111.8
12758,116.0
12760,120.2
12762,124.3
12764,122.2
12766,120.5
12768,118.1
12770,117.0
12772,114.5
12774,112.6
12776,111.6
12778,108.8
12780,106.8
12782,105.3
12784,103.0
12786,100.8
12788,99.3
12790,100.0
12792,103.2
12794,105.8
12796,109.3
12798,112.8
12800,115.3
12802,118.5
12804,117.1
12806,116.5
12808,114.9
12810,114.3
12812,113.3
12814,111.4
12816,110.3
12818,107.8
12820,105.7
12822,104.4
12824,102.1
12826,100.6
12828,98.2
12830,101.4
12832,105.3
12834,108.6
12836,112.9
12838,116.2
12840,119.5
12842,120.9
12844,119.9
12846,118.9
12848,117.1
12850,116.0
12852,115.0
12854,114.1
12856,112.9
12858,111.0
12860,109.6
12862,108.1
12864,106.2
12866,105.4
12868,103.5
12870,106.8
12872,110.5
12874,113.9
12876,118.0
12878,121.2
12880,124.7
12882,126.0
12884,124.1
12886,122.2
12888,119.8
12890,117.9
12892,116.6
12894,114.6
12896,112.8
12898,110.6
12900,108.0
12902,105.7
12904,103.7
12906,101.3
12908,99.5
12910,100.4
12912,104.0
12914,108.1
12916,111.7
12918,115.8
12920,119.2
12922,120.7
12924,118.9
12926,116.6
12928,115.0
12930,113.5
12932,111.0
12934,109.7
12936,108.4
12938,107.1
12940,105.4
12942,104.5
12944,103.7
12946,102.1
12948,100.4
12950,103.9
12952,108.2
12954,111.4
12956,114.8
12958,118.4
12960,122.4
12962,123.2
12964,122.2
12966,120.7
12968,119.6
12970,118.2
12972,116.2
12974,115.2
12976,113.2
12978,111.4
12980,107.9
12982,105.5
12984,102.9
12986,99.4
12988,97.3
12990,97.3
12992,102.0
12994,106.3
12996,110.5
12998,115.0
13000,119.7
13002,120.5
13004,119.3
13006,118.1
13008,116.5
13010,114.3
13012,113.7
13014,111.4
13016,109.8
13018,107.0
13020,104.5
13022,101.1
13024,98.3
13026,96.1
13028,92.7
13030,97.8
13032,102.8
13034,107.5
13036,111.8
13038,116.6
13040,122.0
13042,122.9
13044,120.5
13046,118.7
13048,116.9
13050,115.5
13052,112.9
13054,110.6
13056,109.6
13058,107.7
13060,106.5
13062,105.7
13064,103.9
13066,101.8
13068,100.7
13070,103.6
13072,106.8
13074,110.4
13076,113.5
13078,116.9
13080,120.2
13082,120.4
13084,119.4
13086,117.5
13088,115.6
13090,114.6
13092,112.2
13094,111.2
13096,108.9
13098,106.1
13100,104.3
13102,101.2
13104,99.4
13106,96.3
13108,94.0
13110,95.5
13112,101.2
13114,105.6
13116,111.4
13118,115.9
13120,121.3
13122,123.0
13124,121.2
13126,120.4
13128,118.3
13130,117.0
13132,115.3
13134,113.7
13136,111.6
13138,109.7
13140,107.3
13142,104.9
13144,102.8
13146,100.5
13148,98.1
13150,102.2
13152,105.9
13154,110.1
13156,114.1
13158,118.0
13160,121.7
13162,120.0
13164,118.7
13166,116.7
13168,115.5
13170,113.8
13172,112.1
13174,111.6
13176,110.0
13178,108.2
13180,106.4
13182,105.4
13184,103.7
13186,102.6
13188,101.3
13190,104.6
13192,108.5
13194,112.4
13196,116.2
13198,120.5
13200,124.0
13202,125.1
13204,123.3
13206,121.2
13208,119.8
13210,117.2
13212,116.0
13214,113.4
13216,110.7
13218,108.0
13220,106.2
13222,103.1
13224,100.8
13226,97.8
13228,96.1
13230,98.8
13232,102.7
13234,106.7
13236,109.6
13238,113.2
13240,117.3
13242,118.0
13244,116.5
13246,115.8
13248,114.2
13250,113.9
13252,112.4
13254,111.2
13256,108.8
13258,107.3
13260,105.3
13262,102.7
13264,101.6
13266,99.3
13268,100.5
13270,103.9
13272,107.7
13274,112.2
13276,116.3
13278,119.8
13280,123.4
13282,122.6
13284,120.5
13286,119.0
13288,117.8
13290,115.7
13292,114.1
13294,112.3
13296,111.4
13298,108.9
13300,107.4
13302,105.9
13304,103.7
13306,101.7
13308,102.5
13310,105.6
13312,109.1
13314,112.8
13316,115.9
13318,118.9
13320,122.1
13322,123.3
13324,120.6
13326,119.3
13328,116.8
13330,115.3
13332,113.4
13334,111.1
13336,108.4
13338,106.7
13340,103.8
13342,101.4
13344,99.2
13346,96.7
13348,97.6
13350,100.6
13352,104.5
13354,108.5
13356,111.2
13358,115.2
13360,119.0
13362,117.7
13364,116.0
13366,114.7
13368,112.6
13370,111.3
13372,110.4
13374,108.9
13376,106.2
13378,103.7
13380,101.3
13382,98.6
13384,97.0
13386,94.6
13388,95.6
13390,100.6
13392,105.8
13394,110.7
13396,116.4
13398,121.4
13400,126.2
13402,124.7
13404,123.0
13406,120.2
13408,118.6
13410,116.6
13412,114.4
13414,112.5
13416,110.2
13418,107.4
13420,105.0
13422,103.3
13424,100.4
13426,98.3
13428,102.7
13430,107.4
13432,111.7
13434,116.2
13436,120.4
13438,124.6
13440,129.0
13442,127.0
13444,125.0
13446,122.8
13448,121.1
13450,119.1
13452,116.7
13454,115.6
13456,115.3
13458,114.3
13460,113.8
13462,112.7
13464,112.2
13466,111.4
13468,113.9
13470,117.9
13472,120.1
13474,123.9
13476,127.2
13478,129.9
13480,130.7
13482,128.2
13484,125.7
13486,123.5
13488,121.3
13490,119.1
13492,117.4
13494,115.1
13496,112.9
13498,110.9
13500,108.0
13502,106.1
13504,104.4
13506,102.3
13508,102.5
13510,105.7
13512,110.0
13514,113.6
13516,116.7
13518,120.1
13520,123.4
13522,122.2
13524,120.7
13526,118.6
13528,116.4
13530,114.9
13532,113.3
13534,111.1
13536,109.4
13538,107.0
13540,105.0
13542,103.2
13544,101.1
13546,99.7
13548,100.6
13550,105.2
13552,109.9
13554,114.8
13556,119.3
13558,124.4
13560,125.5
13562,123.8
13564,122.4
13566,120.1
13568,119.0
13570,117.1
13572,115.4
13574,113.9
13576,110.8
13578,107.7
13580,104.1
13582,100.9
13584,98.1
13586,94.8
13588,95.8
13590,100.9
13592,106.2
13594,110.8
13596,116.3
13598,121.0
13600,122.9
13602,121.3
13604,119.3
13606,117.4
13608,116.1
13610,114.1
13612,112.0
13614,110.6
13616,108.0
13618,106.4
13620,103.8
13622,102.0
13624,100.0
13626,97.8
13628,101.4
13630,104.2
13632,107.8
13634,110.6
13636,113.7
13638,117.7
13640,118.2
13642,116.9
13644,114.8
13646,112.8
13648,111.7
13650,110.1
13652,108.0
13654,107.4
13656,105.7
13658,104.3
13660,102.6
13662,101.3
13664,99.4
13666,98.7
13668,102.0
13670,105.6
13672,109.4
13674,113.8
13676,118.0
13678,121.8
13680,120.0
13682,118.7
13684,116.9
13686,114.9
13688,113.6
13690,111.5
13692,110.1
13694,109.0
13696,107.4
13698,106.7
13700,105.4
13702,103.4
13704,102.4
13706,100.7
13708,103.2
13710,106.2
13712,108.8
13714,111.7
13716,114.4
13718,117.0
13720,117.9
13722,117.4
13724,115.4
13726,114.5
13728,113.5
13730,112.1
13732,111.1
13734,108.4
13736,106.8
13738,104.5
13740,102.4
13742,100.1
13744,97.8
13746,95.5
13748,99.2
13750,103.3
13752,106.7
13754,110.9
13756,115.1
13758,118.4
13760,116.5
13762,115.3
13764,113.2
13766,111.7
13768,110.0
13770,108.2
13772,105.8
13774,103.8
13776,102.4
13778,100.5
13780,98.7
13782,96.6
13784,94.5
13786,92.8
13788,96.6
13790,100.4
13792,105.1
13794,108.0
13796,112.5
13798,116.6
13800,114.1
13802,112.3
13804,110.5
13806,108.1
13808,106.3
13810,104.7
13812,103.1
13814,102.0
13816,101.1
13818,99.4
13820,98.6
13822,97.4
13824,96.3
13826,97.0
13828,99.4
13830,101.9
13832,103.8
13834,106.5
13836,108.5
13838,111.2
13840,111.0
13842,110.6
13844,109.8
13846,109.5
13848,108.9
13850,108.4
13852,107.7
13854,107.1
13856,105.3
13858,104.8
13860,102.9
13862,102.2
13864,100.9
13866,103.6
13868,106.1
13870,108.7
13872,111.5
13874,113.7
13876,115.8
13878,118.6
13880,117.4
13882,115.6
13884,114.1
13886,112.6
13888,110.8
13890,109.6
13892,108.0
13894,106.5
13896,105.0
13898,103.7
13900,102.0
13902,100.9
13904,98.6
13906,99.7
13908,102.6
13910,105.1
13912,107.7
13914,110.7
13916,113.3
13918,116.6
13920,114.9
13922,113.5
13924,112.7
13926,111.4
13928,109.9
13930,109.2
13932,107.9
13934,106.4
13936,105.6
13938,104.4
13940,103.4
13942,101.8
13944,100.5
13946,104.6
13948,107.5
13950,110.2
13952,114.3
13954,117.0
13956,120.9
13958,124.1
13960,122.9
13962,121.5
13964,119.3
13966,118.3
13968,116.4
13970,115.3
13972,113.8
13974,110.5
13976,107.6
13978,104.9
13980,102.2
13982,99.5
13984,97.4
13986,97.4
13988,101.3
13990,104.9
13992,108.3
13994,111.6
13996,115.6
13998,119.0
14000,118.3
14002,117.6
14004,116.5
14006,115.7
14008,115.3
14010,114.0
14012,112.8
14014,109.7
14016,107.2
14018,105.4
14020,102.5
14022,101.1
14024,97.7
14026,101.4
14028,103.8
14030,107.5
14032,109.9
14034,112.4
14036,115.4
14038,118.9
14040,117.7
14042,116.1
14044,113.9
14046,112.4
14048,110.5
14050,109.3
14052,107.8
14054,105.9
14056,104.7
14058,103.4
14060,100.9
14062,99.5
14064,97.9
14066,101.3
14068,104.7
14070,108.6
14072,111.5
14074,115.6
14076,119.2
14078,117.8
14080,116.0
14082,114.1
14084,112.5
14086,111.2
14088,110.4
14090,109.0
14092,107.7
14094,106.9
14096,106.3
14098,105.4
14100,105.3
14102,103.8
14104,103.3
14106,106.9
14108,110.1
14110,113.9
14112,118.0
14114,120.8
14116,124.8
14118,125.5
14120,123.4
14122,121.4
14124,119.9
14126,117.8
14128,116.3
14130,114.9
14132,112.7
14134,110.6
14136,107.7
14138,105.6
14140,103.1
14142,100.3
14144,98.0
14146,102.1
14148,106.2
14150,109.8
14152,113.4
14154,118.0
14156,121.0
14158,120.8
14160,119.7
14162,118.7
14164,117.6
14166,116.0
14168,115.4
14170,114.5
14172,113.2
14174,111.1
14176,109.4
14178,108.0
14180,106.5
14182,105.1
14184,103.7
14186,106.4
14188,109.1
14190,111.5
14192,114.5
14194,117.1
14196,119.8
14198,120.2
14200,119.0
14202,117.5
14204,116.3
14206,114.3
14208,113.1
14210,111.4
14212,110.4
14214,108.8
14216,107.0
14218,105.2
14220,104.4
14222,102.5
14224,101.0
14226,104.5
14228,108.4
14230,112.2
14232,115.4
14234,119.3
14236,122.6
14238,126.7
14240,124.6
14242,122.3
14244,121.5
14246,119.6
14248,117.1
14250,116.0
14252,113.5
14254,111.3
14256,109.3
14258,106.4
14260,104.1
14262,101.9
14264,99.0
14266,100.1
14268,103.8
14270,108.0
14272,111.4
14274,115.3
14276,119.7
14278,120.3
14280,118.9
14282,117.7
14284,116.1
14286,113.9
14288,113.0
14290,111.3
14292,108.9
14294,107.2
14296,105.1
14298,102.9
14300,100.8
14302,98.9
14304,97.1
14306,97.8
14308,102.4
14310,106.6
14312,111.0
14314,115.4
14316,118.9
14318,120.7
14320,120.3
14322,119.3
14324,118.7
14326,118.1
14328,117.4
14330,116.1
14332,114.2
14334,111.5
14336,109.6
14338,106.9
14340,105.2
14342,103.0
14344,101.0
14346,104.9
14348,108.6
14350,112.2
14352,116.2
14354,121.0
14356,124.9
14358,125.4
14360,123.5
14362,121.9
14364,120.3
14366,118.1
14368,116.0
14370,114.5
14372,112.4
14374,110.2
14376,107.8
14378,106.1
14380,103.8
14382,101.3
14384,99.4
14386,100.3
14388,104.9
14390,109.4
14392,112.8
14394,117.9
14396,122.0
14398,123.3
14400,121.4
14402,119.8
14404,117.9
14406,117.3
14408,115.4
14410,113.6
14412,111.2
14414,108.1
14416,105.6
14418,103.5
14420,100.8
14422,98.5
14424,95.8
14426,99.7
14428,103.9
14430,107.1
14432,111.7
14434,115.7
14436,119.2
14438,120.5
14440,119.3
14442,118.1
14444,117.3
14446,115.7
14448,115.0
14450,113.3
14452,111.0
14454,109.1
14456,106.7
14458,105.3
14460,102.4
14462,100.1
14464,97.9
14466,101.9
14468,106.0
14470,110.1
14472,113.5
14474,117.7
14476,121.4
14478,120.6
14480,119.1
14482,117.6
14484,116.9
14486,115.8
14488,114.3
14490,113.1
14492,110.8
14494,107.9
14496,106.2
14498,103.8
14500,101.6
14502,99.3
14504,100.1
14506,103.1
14508,106.2
14510,108.8
14512,112.4
14514,116.0
14516,119.0
14518,117.2
14520,116.8
14522,115.6
14524,114.1
14526,112.4
14528,111.8
14530,109.9
14532,108.5
14534,107.3
14536,106.0
14538,103.8
14540,102.7
14542,101.2
14544,104.0
14546,107.9
14548,112.0
14550,115.7
14552,119.0
14554,123.0
14556,126.6
14558,124.5
14560,122.3
14562,119.5
14564,117.4
14566,115.1
14568,113.7
14570,111.5
14572,109.0
14574,105.9
14576,104.0
14578,101.2
14580,99.0
14582,96.6
14584,97.9
14586,101.2
14588,105.7
14590,110.0
14592,113.6
14594,117.0
14596,121.8
14598,119.6
14600,117.4
14602,115.6
14604,113.8
14606,111.5
14608,109.5
14610,107.7
14612,105.7
14614,104.8
14616,102.6
14618,101.3
14620,99.7
14622,98.0
14624,100.7
14626,103.5
14628,105.7
14630,108.2
14632,111.4
14634,114.1
14636,116.2
14638,114.4
14640,112.6
14642,111.0
14644,109.8
14646,108.7
14648,106.9
14650,105.6
14652,105.8
14654,104.9
14656,104.3
14658,104.1
14660,103.5
14662,103.8
14664,106.4
14666,109.9
14668,112.8
14670,116.4
14672,119.3
14674,122.3
14676,122.6
14678,121.6
14680,119.4
14682,117.3
14684,116.0
14686,113.4
14688,111.8
14690,110.4
14692,108.7
14694,107.4
14696,105.7
14698,104.1
14700,102.5
14702,101.2
14704,102.8
14706,105.6
14708,108.7
14710,111.8
14712,115.3
14714,117.9
14716,121.2
14718,120.1
14720,118.4
14722,117.3
14724,115.9
14726,114.4
14728,112.3
14730,110.7
14732,108.4
14734,106.6
14736,104.4
14738,102.0
14740,99.0
14742,97.1
14744,98.0
14746,103.0
14748,107.4
14750,111.8
14752,116.4
14754,122.0
14756,123.3
14758,122.2
14760,121.2
14762,120.2
14764,119.7
14766,117.8
14768,116.8
14770,116.5
14772,113.9
14774,111.1
14776,108.6
14778,106.4
14780,104.1
14782,101.5
14784,102.7
14786,107.6
14788,112.0
14790,116.4
14792,120.3
14794,124.6
14796,129.6
14798,127.9
14800,126.2
14802,124.4
14804,123.0
14806,121.8
14808,120.3
14810,118.3
14812,116.1
14814,112.5
14816,109.4
14818,105.8
14820,103.2
14822,100.0
14824,99.8
14826,104.2
14828,108.2
14830,112.4
14832,115.7
14834,120.3
14836,123.9
14838,122.4
14840,121.3
14842,120.3
14844,119.3
14846,118.4
14848,117.5
14850,115.9
14852,113.5
14854,109.5
14856,106.8
14858,104.0
14860,100.7
14862,97.3
14864,98.6
14866,103.6
14868,109.1
14870,115.1
14872,120.3
14874,126.2
14876,127.8
14878,126.5
14880,124.5
14882,122.5
14884,120.4
14886,117.8
14888,115.7
14890,114.3
14892,112.2
14894,109.9
14896,108.0
14898,105.9
14900,103.6
14902,101.6
14904,102.5
14906,106.2
14908,110.1
14910,113.3
14912,117.0
14914,120.7
14916,123.5
14918,122.9
14920,121.5
14922,120.4
14924,118.7
14926,118.4
14928,117.2
14930,114.4
14932,112.1
14934,109.5
14936,107.5
14938,104.7
14940,101.7
14942,99.8
14944,100.4
14946,105.2
14948,109.9
14950,114.7
14952,119.4
14954,123.9
14956,125.5
14958,124.2
14960,121.9
14962,120.5
14964,118.3
14966,116.7
14968,114.4
14970,113.3
14972,111.3
14974,109.5
14976,108.2
14978,106.6
14980,106.1
14982,104.6
14984,105.6
14986,108.9
14988,113.7
14990,117.5
14992,121.0
14994,125.1
14996,129.3
14998,125.9
15000,123.6
15002,121.0
15004,117.7
15006,115.2
15008,112.5
15010,110.2
15012,108.2
15014,105.9
15016,103.5
15018,101.2
15020,99.0
15022,96.8
15024,97.3
15026,102.3
15028,106.7
15030,110.9
15032,115.6
15034,119.7
15036,123.8
15038,121.5
15040,119.5
15042,117.8
15044,116.0
15046,113.7
15048,111.8
15050,109.5
15052,107.5
15054,104.9
15056,102.0
15058,99.2
15060,96.6
15062,94.0
15064,95.6
15066,100.3
15068,105.8
15070,111.5
15072,116.2
15074,121.7
15076,122.5
15078,120.7
15080,119.4
15082,116.9
15084,115.2
15086,113.5
15088,111.2
15090,109.4
15092,108.2
15094,106.2
15096,104.8
15098,103.3
15100,102.7
15102,101.0
15104,103.9
15106,107.1
15108,110.9
15110,114.4
15112,117.1
15114,120.4
15116,124.3
15118,122.3
15120,120.4
15122,117.8
15124,115.6
15126,114.0
15128,111.9
15130,110.1
15132,106.5
15134,104.3
15136,101.8
15138,99.1
15140,96.0
15142,93.5
15144,97.8
15146,103.2
15148,108.0
15150,114.1
15152,119.2
15154,123.5
15156,124.9
15158,123.1
15160,120.8
15162,119.1
15164,116.3
15166,114.7
15168,112.3
15170,109.6
15172,106.6
15174,104.7
15176,101.5
15178,98.6
15180,95.7
15182,93.5
15184,97.4
15186,101.3
15188,105.1
15190,109.3
15192,112.7
15194,117.0
15196,118.5
15198,118.3
15200,118.3
15202,117.9
15204,117.0
15206,116.7
15208,116.6
15210,113.5
15212,110.1
15214,106.3
15216,103.3
15218,100.8
15220,97.5
15222,97.9
15224,101.8
15226,105.6
15228,109.7
15230,114.1
15232,117.6
15234,122.1
15236,123.3
15238,121.9
15240,119.8
15242,118.6
15244,116.4
15246,114.9
15248,113.6
15250,110.5
15252,108.6
15254,105.7
15256,102.1
15258,100.1
15260,97.0
15262,98.0
15264,102.4
15266,106.4
15268,110.3
15270,114.5
15272,119.2
15274,121.1
15276,119.3
15278,117.6
15280,115.8
15282,115.2
15284,113.1
15286,112.0
15288,110.2
15290,107.5
15292,105.1
15294,103.2
15296,101.0
15298,99.1
15300,97.0
15302,97.5
15304,102.1
15306,105.9
15308,110.4
15310,115.2
15312,119.5
15314,120.8
15316,118.3
15318,116.8
15320,114.9
15322,113.6
15324,111.4
15326,109.9
15328,107.4
15330,106.1
15332,104.8
15334,102.8
15336,101.5
15338,99.8
15340,98.7
15342,101.3
15344,105.5
15346,108.4
15348,111.9
15350,115.4
15352,118.6
15354,118.2
15356,117.0
15358,116.0
15360,114.9
15362,113.5
15364,112.2
15366,111.5
15368,109.5
15370,109.2
15372,107.8
15374,106.9
15376,105.5
15378,104.4
15380,102.9
15382,106.1
15384,108.8
15386,111.4
15388,114.2
15390,117.3
15392,119.8
15394,120.8
15396,118.2
15398,116.9
15400,114.6
15402,113.1
15404,111.3
15406,109.6
15408,107.6
15410,106.1
15412,104.2
15414,102.9
15416,101.2
15418,100.0
15420,98.1
15422,103.2
15424,107.6
15426,112.1
15428,116.8
15430,121.3
15432,126.5
15434,125.1
15436,123.4
15438,121.3
15440,119.4
15442,118.3
15444,115.8
15446,114.5
15448,113.1
15450,110.6
15452,108.4
15454,106.5
15456,104.9
15458,102.4
15460,101.0
15462,103.9
15464,107.0
15466,110.0
15468,113.8
15470,116.5
15472,120.1
15474,120.5
15476,118.6
15478,117.4
15480,115.9
15482,114.2
15484,113.0
15486,111.5
15488,109.3
15490,107.0
15492,104.9
15494,103.0
15496,100.6
15498,99.0
15500,97.0
15502,97.7
15504,103.1
15506,107.7
15508,112.0
15510,117.2
15512,121.2
15514,122.4
15516,120.8
15518,119.0
15520,116.9
15522,115.5
15524,112.8
15526,110.9
15528,110.1
15530,108.4
15532,108.0
15534,106.6
15536,106.1
15538,104.7
15540,103.0
15542,106.5
15544,110.1
15546,114.5
15548,117.8
15550,121.1
15552,124.4
15554,126.0
15556,123.5
15558,122.1
15560,120.4
15562,118.1
15564,116.4
15566,114.3
15568,112.3
15570,110.3
15572,107.4
15574,105.0
15576,102.1
15578,99.2
15580,97.1
15582,97.8
15584,101.7
15586,106.3
15588,110.8
15590,115.2
15592,119.0
15594,121.0
15596,118.9
15598,117.2
15600,115.5
15602,114.6
15604,112.5
15606,111.1
15608,108.6
15610,106.9
15612,104.7
15614,102.1
15616,100.5
15618,97.3
15620,95.2
15622,100.0
15624,104.4
15626,108.3
15628,112.9
15630,116.9
15632,121.5
15634,120.8
15636,120.4
15638,119.1
15640,118.6
15642,117.8
15644,116.8
15646,116.0
15648,114.5
15650,111.5
15652,109.9
15654,107.0
15656,105.5
15658,102.7
15660,101.3
15662,104.2
15664,106.7
15666,110.5
15668,113.6
15670,116.5
15672,119.6
15674,120.8
15676,119.3
15678,117.3
15680,116.2
15682,114.0
15684,112.3
15686,111.2
15688,107.8
15690,105.0
15692,102.3
15694,99.1
15696,96.1
15698,93.6
15700,90.5
15702,96.0
15704,100.9
15706,105.9
15708,110.8
15710,116.5
15712,121.0
15714,122.7
15716,121.3
15718,119.2
15720,117.1
15722,114.6
15724,112.7
15726,111.1
15728,109.0
15730,106.3
15732,103.5
15734,101.2
15736,99.3
15738,97.0
15740,96.9
15742,100.5
15744,104.3
15746,107.7
15748,111.7
15750,114.9
15752,118.9
15754,117.5
15756,116.1
15758,114.5
15760,112.2
15762,110.4
15764,109.1
15766,108.0
15768,105.9
15770,104.7
15772,103.1
15774,101.6
15776,100.6
15778,99.1
15780,100.2
15782,104.5
15784,107.7
15786,111.7
15788,115.9
15790,120.1
15792,124.0
15794,121.5
15796,120.4
15798,117.8
15800,115.9
15802,114.2
15804,112.5
15806,110.5
15808,109.2
15810,106.8
15812,105.7
15814,104.3
15816,102.4
15818,100.7
15820,104.2
15822,106.3
15824,109.5
15826,112.9
15828,115.9
15830,118.9
15832,121.8
15834,119.1
15836,118.1
15838,115.8
15840,114.2
15842,112.1
15844,110.7
15846,108.6
15848,107.7
15850,105.8
15852,104.6
15854,103.7
15856,102.1
15858,101.6
15860,102.4
15862,106.4
15864,109.5
15866,113.3
15868,117.4
15870,120.8
15872,124.4
15874,125.2
15876,123.3
15878,121.7
15880,119.3
15882,117.5
15884,115.9
15886,113.7
15888,111.2
15890,108.3
15892,106.4
15894,103.3
15896,100.6
15898,98.6
15900,95.8
15902,100.9
15904,106.3
15906,110.6
15908,116.5
15910,121.5
15912,126.4
15914,124.4
15916,122.4
15918,121.5
15920,118.8
15922,117.1
15924,115.7
15926,113.9
15928,111.0
15930,109.2
15932,106.6
15934,104.5
15936,101.4
15938,98.9
15940,100.3
15942,103.7
15944,107.9
15946,111.2
15948,115.9
15950,119.9
15952,121.2
15954,120.2
15956,119.1
15958,117.5
15960,116.3
15962,115.7
15964,114.7
15966,113.1
15968,110.6
15970,107.9
15972,106.4
15974,104.2
15976,101.7
15978,99.7
15980,100.6
15982,105.7
15984,109.6
15986,115.1
15988,119.0
15990,124.0
15992,125.2
15994,123.7
15996,121.7
15998,120.6
16000,118.3
16002,116.8
16004,114.4
16006,112.2
16008,111.0
16010,108.9
16012,106.8
16014,105.1
16016,103.1
16018,100.9
16020,105.2
16022,108.9
16024,112.8
16026,116.5
16028,120.1
16030,124.3
16032,125.9
16034,124.1
16036,122.1
16038,120.7
16040,118.5
16042,116.9
16044,115.9
16046,113.6
16048,110.7
16050,108.1
16052,105.2
16054,102.8
16056,100.2
16058,97.1
16060,98.7
16062,104.5
16064,110.7
16066,116.5
16068,122.2
16070,129.1
16072,130.4
16074,128.1
16076,125.3
16078,123.7
16080,120.6
16082,118.5
16084,116.5
16086,114.0
16088,112.2
16090,109.3
16092,107.6
16094,105.7
16096,103.0
16098,101.0
16100,104.4
16102,108.4
16104,112.2
16106,115.7
16108,119.6
16110,122.9
16112,126.6
16114,124.7
16116,123.5
16118,122.1
16120,120.3
16122,118.3
16124,117.0
16126,115.2
16128,112.8
16130,109.4
16132,106.8
16134,104.5
16136,101.7
16138,100.0
16140,100.7
16142,106.0
16144,110.8
16146,116.2
16148,121.9
16150,126.5
16152,127.6
16154,125.9
16156,124.6
16158,122.6
16160,119.9
16162,118.3
16164,115.8
16166,114.2
16168,111.7
16170,110.4
16172,108.4
16174,105.6
16176,103.8
16178,101.4
16180,102.6
16182,106.3
16184,110.4
16186,115.1
16188,118.1
16190,122.9
16192,126.1
16194,124.6
16196,122.5
16198,121.0
16200,118.3
16202,116.3
16204,114.9
16206,112.6
16208,110.0
16210,106.8
16212,104.4
16214,102.4
16216,99.6
16218,97.0
16220,98.2
16222,103.7
16224,110.0
16226,115.4
16228,120.4
16230,126.7
16232,128.3
16234,126.2
16236,124.4
16238,122.9
16240,120.7
16242,119.0
16244,117.3
16246,114.4
16248,112.2
16250,108.7
16252,105.8
16254,103.2
16256,100.1
16258,97.0
16260,98.3
16262,103.7
16264,108.8
16266,113.9
16268,118.5
16270,123.8
16272,125.8
16274,123.7
16276,122.8
16278,120.8
16280,119.2
16282,117.5
16284,116.0
16286,114.1
16288,112.4
16290,110.4
16292,108.1
16294,106.1
16296,104.7
16298,104.5
16300,108.0
16302,111.1
16304,114.3
16306,117.6
16308,120.5
16310,123.9
16312,126.9
16314,124.2
16316,122.3
16318,120.4
16320,118.5
16322,116.7
16324,114.4
16326,112.0
16328,109.4
16330,106.9
16332,104.1
16334,101.6
16336,98.1
16338,95.5
16340,101.2
16342,106.1
16344,111.2
16346,116.3
16348,120.9
16350,126.9
16352,128.2
16354,126.2
16356,124.2
16358,122.0
16360,119.9
16362,118.4
16364,116.2
16366,113.2
16368,111.0
16370,108.9
16372,105.8
16374,103.3
16376,100.9
16378,98.5
16380,101.9
16382,105.7
16384,108.5
16386,112.9
16388,116.5
16390,119.6
16392,120.9
16394,119.3
16396,118.4
16398,117.0
16400,115.6
16402,115.4
16404,113.5
16406,111.8
16408,109.5
16410,107.6
16412,105.7
16414,103.6
16416,101.9
16418,103.5
16420,107.4
16422,112.3
16424,116.4
16426,120.8
16428,124.8
16430,129.1
16432,130.8
16434,127.9
16436,125.2
16438,123.0
16440,119.9
16442,117.8
16444,114.8
16446,113.1
16448,110.5
16450,108.4
16452,107.0
16454,104.4
16456,103.2
16458,101.0
16460,103.8
16462,107.1
16464,111.1
16466,114.1
16468,117.7
16470,120.2
16472,124.3
16474,121.6
16476,119.3
16478,116.7
16480,114.0
16482,112.5
16484,110.2
16486,107.3
16488,105.6
16490,102.7
16492,100.5
16494,98.2
16496,96.3
16498,93.8
16500,95.6
16502,100.4
16504,106.2
16506,111.4
16508,116.4
16510,121.1
16512,126.8
16514,123.9
16516,122.0
16518,119.5
16520,116.9
16522,114.2
16524,112.6
16526,110.0
16528,106.5
16530,103.6
16532,100.4
16534,96.5
16536,93.9
16538,90.3
16540,96.1
16542,101.3
16544,107.7
16546,113.0
16548,118.1
16550,123.8
16552,122.0
16554,120.5
16556,118.8
16558,116.4
16560,114.7
16562,113.0
16564,111.0
16566,108.9
16568,106.3
16570,104.1
16572,102.1
16574,100.4
16576,97.7
16578,95.3
16580,100.6
16582,105.5
16584,109.7
16586,114.0
16588,119.4
16590,123.8
16592,121.9
16594,119.3
16596,116.8
16598,114.9
16600,113.1
16602,110.6
16604,108.2
16606,106.5
16608,104.8
16610,102.2
16612,100.8
16614,98.7
16616,96.5
16618,99.1
16620,105.0
16622,110.5
16624,116.2
16626,122.5
16628,128.4
16630,130.7
16632,129.0
16634,126.9
16636,124.3
16638,122.3
16640,119.9
16642,118.3
16644,115.8
16646,114.3
16648,111.8
16650,108.8
16652,106.9
16654,104.4
16656,102.3
16658,102.6
16660,105.8
16662,109.8
16664,112.8
16666,116.9
16668,120.1
16670,124.1
16672,122.8
16674,120.6
16676,119.4
16678,118.3
16680,116.3
16682,115.2
16684,113.9
16686,110.8
16688,108.5
16690,105.4
16692,102.7
16694,99.4
16696,96.5
16698,97.3
16700,102.5
16702,106.9
16704,111.1
16706,114.9
16708,119.6
16710,124.2
16712,122.1
16714,119.6
16716,118.4
16718,115.7
16720,113.7
16722,112.5
16724,109.6
16726,106.6
16728,103.8
16730,101.3
16732,97.5
16734,95.2
16736,91.8
16738,92.7
16740,98.1
16742,103.4
16744,108.2
16746,113.6
16748,119.0
16750,120.5
16752,118.6
16754,116.8
16756,114.4
16758,112.4
16760,110.5
16762,108.6
16764,106.4
16766,104.9
16768,103.0
16770,101.5
16772,100.4
16774,98.3
16776,96.4
16778,97.8
16780,102.2
16782,106.3
16784,110.6
16786,115.2
16788,118.8
16790,120.8
16792,119.7
16794,118.7
16796,117.7
16798,116.4
16800,114.9
16802,113.4
16804,111.2
16806,108.9
16808,106.4
16810,103.7
16812,100.5
16814,98.4
16816,96.0
16818,99.6
16820,103.5
16822,107.2
16824,111.2
16826,114.7
16828,118.4
16830,118.4
16832,117.8
16834,117.0
16836,115.7
16838,114.8
16840,114.2
16842,114.0
16844,112.0
16846,110.5
16848,108.0
16850,106.4
16852,104.8
16854,102.4
16856,101.3
16858,104.4
16860,107.4
16862,111.0
16864,115.4
16866,118.7
16868,122.4
16870,123.4
16872,121.5
16874,120.3
16876,118.8
16878,116.5
16880,115.5
16882,113.5
16884,111.3
16886,109.2
16888,107.4
16890,104.4
16892,102.6
16894,100.6
16896,97.8
16898,102.8
16900,107.3
16902,110.9
16904,115.3
16906,120.4
16908,124.0
16910,125.3
16912,124.6
16914,122.9
16916,121.1
16918,119.4
16920,118.2
16922,116.4
16924,113.6
16926,111.0
16928,108.0
16930,105.1
16932,102.2
16934,99.6
16936,99.8
16938,102.8
16940,106.1
16942,109.6
16944,112.4
16946,115.2
16948,118.6
16950,117.3
16952,116.7
16954,115.2
16956,113.8
16958,113.2
16960,111.2
16962,109.9
16964,108.7
16966,106.5
16968,104.9
16970,103.1
16972,101.4
16974,98.7
16976,100.3
16978,103.8
16980,106.8
16982,111.1
16984,114.2
16986,118.2
16988,121.5
16990,119.8
16992,117.9
16994,117.1
16996,115.1
16998,113.0
17000,111.4
17002,110.6
17004,108.4
17006,107.2
17008,105.7
17010,103.7
17012,102.5
17014,100.5
17016,103.8
17018,106.3
17020,108.3
17022,111.1
17024,113.7
17026,116.7
17028,118.7
17030,117.4
17032,116.3
17034,114.0
17036,113.0
17038,111.0
17040,110.1
17042,108.4
17044,106.6
17046,103.7
17048,101.0
17050,99.4
17052,97.0
17054,94.5
17056,96.1
17058,101.2
17060,107.1
17062,112.0
17064,117.7
17066,124.0
17068,129.3
17070,126.8
17072,124.7
17074,123.6
17076,120.8
17078,118.9
17080,116.9
17082,114.7
17084,113.1
17086,111.8
17088,109.1
17090,107.3
17092,105.6
17094,103.5
17096,106.9
17098,110.2
17100,113.4
17102,116.7
17104,120.2
17106,123.4
17108,126.8
17110,124.7
17112,123.7
17114,122.3
17116,120.4
17118,119.5
17120,117.5
17122,115.9
17124,114.2
17126,111.2
17128,109.0
17130,106.6
17132,104.8
17134,101.9
17136,103.0
17138,107.0
17140,110.8
17142,115.1
17144,118.9
17146,122.4
17148,127.0
17150,124.3
17152,121.6
17154,119.7
17156,117.8
17158,115.2
17160,113.4
17162,111.0
17164,109.7
17166,107.7
17168,107.0
17170,105.1
17172,103.4
17174,102.2
17176,100.8
17178,104.5
17180,107.9
17182,111.0
17184,115.4
17186,118.5
17188,121.7
17190,123.1
17192,120.8
17194,118.5
17196,116.1
17198,113.9
17200,111.8
17202,109.2
17204,106.9
17206,104.8
17208,101.7
17210,98.7
17212,95.8
17214,93.5
17216,90.3
17218,95.7
17220,101.3
17222,107.4
17224,112.9
17226,117.9
17228,123.5
17230,122.3
17232,120.6
17234,119.0
17236,116.8
17238,115.6
17240,114.1
17242,112.1
17244,109.2
17246,106.5
17248,103.0
17250,99.6
17252,96.6
17254,94.1
17256,90.4
17258,96.4
17260,101.6
17262,107.2
17264,112.3
17266,118.5
17268,123.5
17270,122.1
17272,120.0
17274,118.3
17276,116.6
17278,114.3
17280,112.7
17282,111.6
17284,108.3
17286,106.2
17288,103.8
17290,101.4
17292,99.4
17294,96.5
17296,97.7
17298,102.3
17300,106.3
17302,111.3
17304,115.7
17306,119.2
17308,123.7
17310,122.0
17312,120.4
17314,119.2
17316,117.7
17318,116.0
17320,114.3
17322,112.0
17324,109.8
17326,106.8
17328,103.0
17330,100.6
17332,97.5
17334,94.8
17336,95.8
17338,101.2
17340,105.5
17342,110.9
17344,116.7
17346,121.0
17348,122.5
17350,121.2
17352,119.3
17354,117.2
17356,115.3
17358,113.3
17360,110.7
17362,108.8
17364,106.6
17366,104.3
17368,101.2
17370,98.7
17372,97.0
17374,94.1
17376,94.8
17378,99.9
17380,103.8
17382,107.9
17384,111.9
17386,116.2
17388,118.5
17390,117.0
17392,115.5
17394,114.5
17396,113.1
17398,111.9
17400,110.9
17402,108.6
17404,105.7
17406,103.2
17408,100.8
17410,98.2
17412,95.3
17414,92.6
17416,97.4
17418,102.4
17420,107.5
17422,111.6
17424,117.0
17426,121.6
17428,119.1
17430,117.2
17432,115.6
17434,113.6
17436,112.2
17438,109.9
17440,108.8
17442,107.0
17444,105.8
17446,104.3
17448,102.6
17450,101.6
17452,100.2
17454,98.1
17456,101.3
17458,104.9
17460,108.2
17462,112.0
17464,115.2
17466,118.8
17468,117.5
17470,115.4
17472,114.1
17474,112.3
17476,111.2
17478,109.4
17480,107.2
17482,106.3
17484,104.2
17486,103.2
17488,101.4
17490,99.7
17492,98.4
17494,101.1
17496,103.6
17498,106.0
17500,108.7
17502,111.0
17504,113.9
17506,116.5
17508,114.7
17510,113.6
17512,112.4
17514,111.1
17516,110.2
17518,108.8
17520,108.2
17522,106.9
17524,106.3
17526,105.9
17528,104.9
17530,104.1
17532,103.7
17534,106.1
17536,107.9
17538,109.6
17540,111.8
17542,114.9
17544,116.8
17546,119.1
17548,117.8
17550,116.1
17552,115.2
17554,114.4
17556,113.2
17558,111.4
17560,110.5
17562,108.5
17564,107.9
17566,105.7
17568,104.7
17570,102.7
17572,101.7
17574,102.2
17576,104.5
17578,107.5
17580,110.2
17582,112.7
17584,114.8
17586,117.8
17588,118.3
17590,117.1
17592,115.8
17594,114.8
17596,113.1
17598,112.2
17600,110.8
17602,108.5
17604,106.0
17606,103.7
17608,101.8
17610,99.2
17612,96.3
17614,98.1
17616,102.5
17618,106.9
17620,111.2
17622,115.7
17624,119.6
17626,124.4
17628,122.5
17630,120.1
17632,118.8
17634,116.9
17636,115.0
17638,113.3
17640,111.0
17642,109.0
17644,107.3
17646,105.4
17648,103.5
17650,101.6
17652,99.4
17654,100.4
17656,103.2
17658,107.6
17660,110.3
17662,114.3
17664,117.4
17666,121.5
17668,119.3
17670,117.0
17672,115.6
17674,113.7
17676,111.2
17678,109.7
17680,107.4
17682,105.8
17684,104.2
17686,103.1
17688,101.6
17690,99.9
17692,98.5
17694,101.5
17696,104.8
17698,108.2
17700,110.8
17702,113.7
17704,116.9
17706,118.2
17708,116.6
17710,114.8
17712,114.0
17714,112.6
17716,110.5
17718,108.9
17720,107.8
17722,107.2
17724,106.9
17726,105.8
17728,104.5
17730,104.2
17732,103.0
17734,106.1
17736,108.8
17738,111.9
17740,114.5
17742,117.6
17744,119.5
17746,120.8
17748,118.2
17750,116.6
17752,115.3
17754,113.3
17756,110.9
17758,109.4
17760,107.8
17762,106.2
17764,104.0
17766,101.6
17768,100.2
17770,98.0
17772,96.1
17774,97.8
17776,102.3
17778,105.9
17780,110.9
17782,115.2
17784,119.5
17786,120.4
17788,119.1
17790,117.3
17792,116.0
17794,114.6
17796,113.1
17798,111.5
17800,109.8
17802,108.5
17804,106.4
17806,104.0
17808,102.6
17810,99.9
17812,98.1
17814,101.5
17816,104.1
17818,106.9
17820,110.1
17822,113.2
17824,116.3
17826,115.4
17828,114.8
17830,113.9
17832,113.5
17834,112.5
17836,112.5
17838,111.7
17840,110.0
17842,108.4
17844,105.6
17846,104.0
17848,102.1
17850,100.2
17852,98.4
17854,101.7
17856,104.1
17858,107.1
17860,110.3
17862,113.0
17864,115.8
17866,115.9
17868,115.1
17870,114.5
17872,113.0
17874,112.1
17876,111.8
17878,111.5
17880,109.6
17882,108.3
17884,107.1
17886,106.6
17888,105.5
17890,104.2
17892,104.2
17894,107.5
17896,109.8
17898,112.1
17900,114.8
17902,117.5
17904,119.9
17906,121.3
17908,119.6
17910,118.3
17912,117.4
17914,116.2
17916,114.4
17918,113.8
17920,111.6
17922,109.9
17924,108.4
17926,106.4
17928,104.4
17930,102.3
17932,100.8
17934,103.8
17936,107.6
17938,110.3
17940,113.8
17942,116.5
17944,120.1
17946,120.0
17948,118.2
17950,116.0
17952,114.0
17954,112.9
17956,110.7
17958,108.6
17960,106.5
17962,104.5
17964,102.5
17966,100.6
17968,98.3
17970,96.4
17972,93.9
17974,95.7
17976,99.1
17978,103.7
17980,108.5
17982,112.1
17984,116.3
17986,118.1
17988,117.0
17990,116.3
17992,115.0
17994,113.4
17996,112.8
17998,111.2
18000,109.6
18002,107.2
18004,105.6
18006,103.3
18008,101.4
18010,100.2
18012,97.8
18014,102.1
18016,106.1
18018,109.3
18020,113.6
18022,117.7
18024,121.8
18026,119.4
18028,118.2
18030,116.2
18032,114.2
18034,112.1
18036,110.6
18038,108.8
18040,106.8
18042,106.0
18044,104.5
18046,102.6
18048,101.4
18050,99.7
18052,98.5
18054,102.4
18056,105.5
18058,109.4
18060,113.5
18062,118.0
18064,121.3
18066,120.2
18068,118.2
18070,116.4
18072,115.5
18074,113.5
18076,111.8
18078,110.1
18080,109.1
18082,108.0
18084,107.1
18086,106.3
18088,104.9
18090,103.5
18092,104.5
18094,107.2
18096,110.3
18098,112.3
18100,114.6
18102,117.6
18104,120.5
18106,120.9
18108,119.4
18110,117.9
18112,116.0
18114,114.8
18116,112.2
18118,111.4
18120,109.1
18122,106.7
18124,103.9
18126,101.8
18128,98.9
18130,96.9
18132,97.4
18134,101.7
18136,105.7
18138,109.3
18140,113.2
18142,117.3
18144,121.6
18146,119.6
18148,117.7
18150,115.1
18152,113.8
18154,111.7
18156,109.0
18158,107.6
18160,106.3
18162,104.7
18164,103.0
18166,101.6
18168,99.9
18170,98.5
18172,99.6
18174,103.3
18176,106.1
18178,109.2
18180,112.6
18182,115.7
18184,118.4
18186,116.5
18188,114.6
18190,112.9
18192,110.8
18194,108.8
18196,106.9
18198,106.0
18200,104.5
18202,104.0
18204,103.1
18206,102.6
18208,101.8
18210,101.0
18212,103.4
18214,106.6
18216,109.9
18218,112.5
18220,116.0
18222,118.3
18224,121.4
18226,120.3
18228,119.1
18230,118.4
18232,116.7
18234,116.0
18236,114.9
18238,114.1
18240,111.4
18242,109.4
18244,106.9
18246,104.0
18248,102.1
18250,99.9
18252,99.7
18254,103.7
18256,106.9
18258,110.8
18260,113.9
18262,118.1
18264,121.3
18266,119.9
18268,117.8
18270,116.8
18272,115.1
18274,113.6
18276,111.7
18278,110.5
18280,110.4
18282,110.5
18284,109.4
18286,109.5
18288,108.4
18290,108.7
18292,110.6
18294,113.3
18296,115.6
18298,117.7
18300,120.3
18302,122.8
18304,125.3
18306,126.2
18308,124.1
18310,123.0
18312,120.9
18314,119.0
18316,117.5
18318,116.1
18320,113.3
18322,111.0
18324,108.1
18326,105.2
18328,102.3
18330,99.5
18332,100.7
18334,104.9
18336,109.7
18338,114.5
18340,119.1
18342,124.3
18344,125.1
18346,123.4
18348,122.3
18350,120.6
18352,118.3
18354,116.4
18356,114.9
18358,112.1
18360,110.3
18362,107.8
18364,105.9
18366,104.2
18368,101.8
18370,99.8
18372,100.2
18374,103.5
18376,107.0
18378,110.4
18380,113.6
18382,116.9
18384,118.5
18386,117.5
18388,117.0
18390,115.9
18392,115.6
18394,114.5
18396,113.9
18398,112.9
18400,111.0
18402,110.2
18404,108.1
18406,106.4
18408,104.5
18410,103.7
18412,106.7
18414,109.6
18416,112.6
18418,116.3
18420,119.6
18422,122.2
18424,123.0
18426,122.0
18428,120.8
18430,120.6
18432,119.8
18434,118.7
18436,117.5
18438,115.9
18440,113.9
18442,110.5
18444,107.7
18446,105.3
18448,101.9
18450,99.9
18452,100.6
18454,104.3
18456,108.1
18458,111.6
18460,115.2
18462,119.8
18464,120.8
18466,119.6
18468,117.3
18470,116.1
18472,114.6
18474,113.5
18476,112.1
18478,110.6
18480,107.9
18482,106.1
18484,103.7
18486,101.9
18488,100.1
18490,98.3
18492,100.9
18494,103.6
18496,106.6
18498,109.6
18500,111.8
18502,114.7
18504,115.8
18506,114.7
18508,113.6
18510,111.8
18512,110.9
18514,110.1
18516,108.4
18518,107.0
18520,106.0
18522,103.7
18524,102.8
18526,101.5
18528,99.3
18530,98.4
18532,101.6
18534,105.4
18536,108.9
18538,112.3
18540,114.9
18542,119.1
18544,118.0
18546,116.6
18548,115.3
18550,113.6
18552,113.2
18554,111.2
18556,110.4
18558,110.0
18560,109.0
18562,108.0
18564,106.5
18566,105.1
18568,104.4
18570,103.0
18572,106.5
18574,109.0
18576,111.6
18578,114.1
18580,117.2
18582,120.4
18584,120.6
18586,118.0
18588,116.1
18590,114.3
18592,112.1
18594,110.9
18596,108.7
18598,106.6
18600,105.8
18602,104.0
18604,102.4
18606,101.2
18608,99.2
18610,98.2
18612,102.4
18614,106.4
18616,109.6
18618,113.8
18620,117.3
18622,121.5
18624,119.3
18626,117.8
18628,115.5
18630,114.5
18632,112.6
18634,110.2
18636,108.8
18638,107.0
18640,106.5
18642,105.0
18644,103.7
18646,103.2
18648,101.9
18650,100.8
18652,103.6
18654,105.9
18656,108.7
18658,112.0
18660,114.8
18662,117.0
18664,118.1
18666,117.1
18668,116.0
18670,115.0
18672,113.4
18674,112.3
18676,111.2
18678,108.7
18680,106.2
18682,104.0
18684,102.6
18686,99.7
18688,97.9
18690,95.7
18692,99.1
18694,103.1
18696,106.5
18698,109.4
18700,113.7
18702,117.0
18704,117.9
18706,116.6
18708,115.0
18710,113.1
18712,112.2
18714,110.2
18716,108.6
18718,107.3
18720,106.7
18722,106.1
18724,105.5
18726,104.6
18728,104.1
18730,104.6
18732,108.0
18734,111.0
18736,113.9
18738,116.8
18740,119.9
18742,122.0
18744,123.3
18746,122.0
18748,120.1
18750,118.1
18752,117.3
18754,114.9
18756,113.5
18758,111.2
18760,109.2
18762,107.0
18764,104.8
18766,103.1
18768,100.4
18770,98.2
18772,102.5
18774,106.4
18776,109.8
18778,113.5
18780,118.1
18782,122.3
18784,123.0
18786,120.7
18788,119.2
18790,117.2
18792,115.1
18794,113.4
18796,111.4
18798,108.9
18800,106.5
18802,104.1
18804,101.6
18806,99.1
18808,97.0
18810,97.7
18812,101.5
18814,105.1
18816,109.7
18818,113.6
18820,117.3
18822,121.3
18824,120.0
18826,119.7
18828,118.5
18830,117.1
18832,115.8
18834,115.0
18836,113.7
18838,112.2
18840,109.3
18842,107.3
18844,105.8
18846,103.5
18848,101.9
18850,102.7
18852,105.4
18854,109.0
18856,112.5
18858,116.0
18860,118.9
18862,122.0
18864,123.0
18866,120.9
18868,119.2
18870,117.1
18872,114.8
18874,113.3
18876,111.1
18878,108.0
18880,105.6
18882,103.2
18884,100.2
18886,97.1
18888,94.7
18890,94.7
18892,98.6
18894,102.3
18896,105.7
18898,109.5
18900,113.7
18902,116.7
18904,118.3
18906,116.6
18908,114.9
18910,112.9
18912,111.4
18914,109.8
18916,108.6
18918,106.6
18920,104.1
18922,100.9
18924,98.8
18926,96.3
18928,94.8
18930,95.6
18932,101.2
18934,107.1
18936,112.6
18938,117.9
18940,123.9
18942,125.0
18944,122.7
18946,120.6
18948,118.7
18950,117.1
18952,114.4
18954,112.5
18956,110.2
18958,109.1
18960,107.9
18962,105.8
18964,105.0
18966,103.1
18968,101.8
18970,102.3
18972,106.3
18974,109.7
18976,113.7
18978,117.2
18980,120.2
18982,124.3
18984,122.5
18986,120.3
18988,118.0
18990,116.2
18992,114.3
18994,112.5
18996,111.6
18998,108.8
19000,107.3
19002,105.3
19004,103.3
19006,100.9
19008,99.3
19010,100.5
19012,104.7
19014,108.6
19016,113.4
19018,117.0
19020,121.8
19022,123.0
19024,121.1
19026,119.9
19028,117.6
19030,116.7
19032,114.9
19034,112.7
19036,110.9
19038,109.6
19040,109.1
19042,107.7
19044,105.9
19046,105.2
19048,103.6
19050,105.3
19052,108.7
19054,111.9
19056,116.2
19058,119.2
19060,123.0
19062,126.6
19064,124.8
19066,122.1
19068,120.3
19070,117.6
19072,115.9
19074,113.0
19076,111.3
19078,107.9
19080,106.0
19082,103.2
19084,100.0
19086,97.3
19088,94.6
19090,94.9
19092,99.2
19094,103.2
19096,107.0
19098,110.5
19100,115.3
19102,118.4
19104,117.5
19106,115.5
19108,114.0
19110,112.4
19112,111.3
19114,110.1
19116,108.5
19118,106.7
19120,104.7
19122,102.2
19124,100.1
19126,98.7
19128,96.7
19130,97.8
19132,101.8
19134,106.7
19136,110.2
19138,115.1
19140,118.9
19142,120.8
19144,118.9
19146,117.7
19148,115.4
19150,114.3
19152,112.3
19154,111.3
19156,109.7
19158,108.6
19160,108.2
19162,106.6
19164,105.7
19166,105.3
19168,104.2
19170,105.3
19172,108.0
19174,111.3
19176,114.7
19178,117.2
19180,121.0
19182,123.5
19184,122.7
19186,120.9
19188,119.2
19190,117.6
19192,115.7
19194,114.3
19196,112.6
19198,109.9
19200,107.3
19202,104.3
19204,102.3
19206,99.4
19208,96.6
19210,98.6
19212,103.3
19214,108.5
19216,114.1
19218,118.6
19220,124.4
19222,125.8
19224,123.9
19226,121.7
19228,119.7
19230,118.2
19232,116.0
19234,114.2
19236,112.3
19238,109.5
19240,106.0
19242,103.6
19244,100.9
19246,97.8
19248,94.9
19250,95.2
19252,98.6
19254,102.6
19256,107.0
19258,110.6
19260,114.6
19262,116.5
19264,115.4
19266,115.1
19268,115.0
19270,114.0
19272,114.2
19274,114.0
19276,111.2
19278,108.3
19280,106.2
19282,103.0
19284,101.2
19286,97.8
19288,96.0
19290,99.2
19292,102.7
19294,106.3
19296,109.6
19298,113.4
19300,117.4
19302,118.3
19304,116.1
19306,115.0
19308,113.6
19310,112.0
19312,110.0
19314,108.0
19316,107.5
19318,105.5
19320,103.9
19322,102.9
19324,100.9
19326,100.0
19328,97.8
19330,102.7
19332,107.2
19334,111.5
19336,115.8
19338,120.0
19340,123.7
19342,122.4
19344,120.4
19346,118.0
19348,115.9
19350,113.7
19352,112.2
19354,110.4
19356,108.2
19358,106.4
19360,104.7
19362,102.3
19364,101.4
19366,98.9
19368,99.8
19370,103.6
19372,108.4
19374,112.4
19376,115.6
19378,119.6
19380,123.8
19382,122.4
19384,121.8
19386,119.9
19388,119.2
19390,117.9
19392,116.8
19394,115.1
19396,112.9
19398,111.0
19400,108.9
19402,107.0
19404,105.8
19406,103.2
19408,106.1
19410,108.9
19412,112.4
19414,115.5
19416,118.3
19418,121.1
19420,124.2
19422,122.3
19424,121.3
19426,119.8
19428,117.6
19430,116.6
19432,114.9
19434,113.3
19436,112.5
19438,110.0
19440,109.2
19442,107.8
19444,105.8
19446,104.1
19448,105.0
19450,108.1
19452,110.5
19454,113.4
19456,116.7
19458,119.9
19460,122.2
19462,122.8
19464,121.4
19466,118.7
19468,116.6
19470,115.1
19472,112.6
19474,110.8
19476,109.6
19478,108.1
19480,106.4
19482,104.6
19484,103.3
19486,101.7
19488,102.6
19490,105.7
19492,108.7
19494,112.0
19496,115.0
19498,117.4
19500,121.3
19502,124.3
19504,121.8
19506,119.5
19508,118.1
19510,116.0
19512,114.3
19514,112.1
19516,109.5
19518,107.3
19520,105.5
19522,102.3
19524,100.6
19526,97.8
19528,95.6
19530,100.8
19532,105.7
19534,111.2
19536,116.4
19538,120.9
19540,126.4
19542,124.9
19544,123.1
19546,121.1
19548,119.5
19550,117.0
19552,115.1
19554,113.9
19556,111.3
19558,108.8
19560,105.6
19562,103.4
19564,100.9
19566,97.9
19568,95.6
19570,100.5
19572,104.7
19574,109.6
19576,114.2
19578,119.6
19580,123.6
19582,122.1
19584,120.5
19586,119.1
19588,117.8
19590,116.7
19592,114.7
19594,113.5
19596,110.5
19598,108.0
19600,104.9
19602,102.7
19604,100.0
19606,97.2
19608,97.7
19610,103.0
19612,107.6
19614,111.7
19616,116.8
19618,121.8
19620,123.0
19622,121.7
19624,120.6
19626,118.7
19628,118.2
19630,116.1
19632,114.6
19634,113.2
19636,111.6
19638,110.1
19640,108.1
19642,106.2
19644,103.8
19646,101.7
19648,102.7
19650,106.3
19652,111.1
19654,114.6
19656,118.5
19658,122.6
19660,126.8
19662,124.4
19664,123.1
19666,121.2
19668,119.5
19670,116.9
19672,115.2
19674,113.7
19676,110.9
19678,107.8
19680,104.3
19682,100.7
19684,97.5
19686,94.8
19688,96.0
19690,102.6
19692,109.2
19694,115.1
19696,121.4
19698,127.4
19700,134.0
19702,132.6
19704,130.4
19706,128.4
19708,126.5
19710,124.7
19712,123.4
19714,121.5
19716,118.6
19718,115.9
19720,112.7
19722,110.3
19724,107.1
19726,105.2
19728,105.1
19730,109.9
19732,113.8
19734,118.9
19736,122.7
19738,127.8
19740,131.2
19742,130.0
19744,127.9
19746,125.5
19748,123.5
19750,121.6
19752,120.1
19754,117.8
19756,114.4
19758,111.8
19760,108.9
19762,106.1
19764,103.8
19766,100.8
19768,97.9
19770,104.6
19772,110.4
19774,116.5
19776,121.7
19778,128.6
19780,134.3
19782,131.4
19784,128.2
19786,126.3
19788,123.2
19790,120.7
19792,117.7
19794,115.6
19796,113.7
19798,112.0
19800,109.5
19802,107.7
19804,106.4
19806,104.3
19808,105.5
19810,109.5
19812,113.3
19814,117.5
19816,121.0
19818,125.5
19820,128.7
19822,127.4
19824,125.8
19826,123.3
19828,121.6
19830,119.7
19832,118.1
19834,116.1
19836,113.2
19838,111.4
19840,108.2
19842,105.9
19844,103.4
19846,100.3
19848,97.8
19850,104.7
19852,110.4
19854,115.7
19856,122.5
19858,128.2
19860,133.8
19862,132.0
19864,129.5
19866,126.8
19868,125.1
19870,122.1
19872,119.8
19874,117.5
19876,115.8
19878,113.5
19880,111.5
19882,108.6
19884,107.0
19886,104.6
19888,105.2
19890,109.0
19892,113.8
19894,117.3
19896,121.7
19898,125.7
19900,129.2
19902,131.0
19904,128.4
19906,125.7
19908,123.5
19910,120.9
19912,118.8
19914,115.8
19916,114.3
19918,112.4
19920,110.7
19922,108.8
19924,106.7
19926,105.7
19928,102.9
19930,107.6
19932,112.8
19934,117.7
19936,122.0
19938,127.1
19940,132.1
19942,132.4
19944,130.5
19946,127.1
19948,124.7
19950,121.3
19952,119.2
19954,116.5
19956,113.8
19958,111.7
19960,109.8
19962,107.5
19964,106.4
19966,104.0
19968,101.9
19970,103.4
19972,107.7
19974,112.0
19976,115.9
19978,120.2
19980,124.5
19982,128.9
19984,126.6
19986,124.0
19988,121.8
19990,119.6
19992,117.1
19994,114.5
19996,112.6
19998,110.7
20000,109.0
20002,107.0
20004,104.5
20006,102.3
20008,100.6
20010,104.1
20012,108.0
20014,112.3
20016,115.2
20018,119.0
20020,123.1
20022,126.5
20024,124.6
20026,123.2
20028,122.5
20030,120.2
20032,119.3
20034,118.0
20036,116.0
20038,114.8
20040,112.7
20042,111.2
20044,109.7
20046,108.8
20048,106.4
20050,106.8
20052,110.2
20054,112.0
20056,115.3
20058,117.6
20060,120.1
20062,122.9
20064,123.9
20066,122.9
20068,123.4
20070,123.0
20072,122.6
20074,121.9
20076,121.4
20078,120.6
20080,119.3
20082,119.0
20084,118.3
20086,117.6
20088,116.4
20090,116.5
20092,117.4
20094,117.9
20096,119.1
20098,119.5
20100,119.5
20102,120.2
20104,121.6
20106,122.5
20108,124.1
20110,124.6
20112,125.7
20114,127.2
20116,128.7
20118,128.6
20120,126.5
20122,124.1
20124,122.5
20126,119.7
20128,118.3
20130,116.6
20132,116.5
20134,117.4
20136,117.0
20138,117.3
20140,118.1
20142,118.8
20144,118.6
20146,121.1
20148,122.4
20150,125.0
20152,126.8
20154,128.4
20156,130.9
20158,131.0
20160,129.0
20162,126.8
20164,124.9
20166,123.9
20168,121.7
20170,120.0
20172,118.4
20174,117.5
20176,115.7
20178,114.9
20180,114.0
20182,112.4
20184,111.3
20186,112.6
20188,115.6
20190,118.2
20192,120.3
20194,124.0
20196,126.0
20198,128.8
20200,128.4
20202,127.0
20204,126.0
20206,124.7
20208,123.3
20210,121.8
20212,120.1
20214,118.5
20216,116.2
20218,113.5
20220,111.3
20222,109.0
20224,106.8
20226,108.3
20228,111.5
20230,115.9
20232,120.5
20234,124.1
20236,128.1
20238,132.0
20240,133.0
20242,131.5
20244,129.8
20246,128.3
20248,126.7
20250,125.3
20252,123.4
20254,121.6
20256,118.0
20258,115.5
20260,113.2
20262,109.7
20264,107.3
20266,108.5
20268,112.6
20270,116.6
20272,121.6
20274,125.9
20276,130.0
20278,134.1
20280,135.2
20282,133.8
20284,131.1
20286,128.7
20288,126.9
20290,125.1
20292,122.0
20294,119.8
20296,117.7
20298,115.6
20300,113.0
20302,111.1
20304,107.8
20306,105.7
20308,109.4
20310,113.1
20312,116.9
20314,120.9
20316,124.1
20318,128.3
20320,131.3
20322,129.0
20324,126.0
20326,123.4
20328,120.2
20330,118.3
20332,115.5
20334,112.6
20336,109.9
20338,106.4
20340,104.0
20342,101.0
20344,98.8
20346,95.3
20348,100.5
20350,106.1
20352,110.7
20354,116.5
20356,121.2
20358,126.7
20360,132.1
20362,129.8
20364,127.4
20366,125.3
20368,123.3
20370,121.4
20372,119.9
20374,117.5
20376,115.0
20378,112.6
20380,111.0
20382,107.8
20384,105.6
20386,103.4
20388,106.9
20390,111.9
20392,115.1
20394,119.8
20396,123.7
20398,128.0
20400,131.9
20402,129.6
20404,126.9
20406,124.5
20408,122.4
20410,119.8
20412,117.4
20414,114.4
20416,111.5
20418,108.7
20420,105.4
20422,102.9
20424,99.5
20426,97.1
20428,98.8
20430,104.6
20432,110.6
20434,115.9
20436,121.9
20438,128.5
20440,134.5
20442,131.6
20444,128.8
20446,126.1
20448,123.4
20450,120.6
20452,117.8
20454,114.8
20456,112.8
20458,111.1
20460,109.3
20462,107.6
20464,105.2
20466,103.2
20468,108.1
20470,111.9
20472,116.9
20474,120.7
20476,125.3
20478,129.7
20480,134.0
20482,131.1
20484,128.8
20486,126.3
20488,123.7
20490,121.6
20492,118.3
20494,116.1
20496,113.8
20498,112.7
20500,110.6
20502,108.8
20504,106.8
20506,104.2
20508,106.0
20510,110.3
20512,115.6
20514,119.9
20516,124.6
20518,129.9
20520,134.5
20522,132.5
20524,129.4
20526,127.3
20528,125.2
20530,123.1
20532,121.0
20534,118.6
20536,117.9
20538,116.2
20540,115.4
20542,114.4
20544,113.0
20546,111.5
20548,112.1
20550,114.6
20552,117.8
20554,120.1
20556,122.2
20558,125.7
20560,128.0
20562,129.6
20564,129.6
20566,130.5
20568,130.1
20570,130.5
20572,131.5
20574,131.9
20576,131.1
20578,129.5
20580,128.5
20582,127.8
20584,126.6
20586,124.9
20588,123.5
20590,125.3
20592,126.5
20594,127.4
20596,128.8
20598,130.4
20600,130.8
20602,132.0
20604,132.3
20606,132.6
20608,133.3
20610,133.4
20612,133.7
20614,133.6
20616,133.7
20618,131.6
20620,130.0
20622,129.0
20624,127.7
20626,126.6
20628,124.8
20630,124.4
20632,124.3
20634,124.9
20636,125.8
20638,125.6
20640,126.4
20642,126.5
20644,128.4
20646,131.0
20648,132.9
20650,134.9
20652,137.3
20654,139.5
20656,141.9
20658,140.4
20660,137.9
20662,136.4
20664,134.1
20666,131.6
20668,129.8
20670,129.1
20672,128.0
20674,127.5
20676,126.1
20678,125.7
20680,125.0
20682,124.4
20684,125.8
20686,129.2
20688,131.0
20690,133.9
20692,136.0
20694,138.4
20696,140.7
20698,141.5
20700,139.4
20702,138.0
20704,136.5
20706,135.1
20708,133.3
20710,131.9
20712,129.3
20714,127.1
20716,124.7
20718,122.4
20720,120.1
20722,117.4
20724,117.9
20726,122.4
20728,125.9
20730,130.1
20732,134.7
20734,138.4
20736,142.5
20738,144.2
20740,141.9
20742,140.1
20744,138.6
20746,137.1
20748,136.0
20750,134.5
20752,131.7
20754,128.8
20756,126.5
20758,123.4
20760,121.5
20762,118.9
20764,115.7
20766,120.9
20768,125.2
20770,129.1
20772,133.8
20774,138.1
20776,142.0
20778,143.1
20780,141.4
20782,139.4
20784,136.9
20786,134.7
20788,132.5
20790,130.1
20792,127.7
20794,126.0
20796,124.5
20798,122.5
20800,120.6
20802,117.8
20804,116.2
20806,120.3
20808,123.8
20810,127.8
20812,132.4
20814,136.2
20816,140.2
20818,140.9
20820,139.4
20822,137.2
20824,135.6
20826,134.3
20828,132.3
20830,131.3
20832,129.1
20834,125.5
20836,122.3
20838,119.8
20840,116.1
20842,112.9
20844,110.0
20846,111.0
20848,116.9
20850,122.3
20852,127.5
20854,133.7
20856,138.9
20858,144.6
20860,140.7
20862,138.0
20864,134.4
20866,131.3
20868,127.8
20870,125.2
20872,121.1
20874,119.0
20876,116.3
20878,113.0
20880,110.1
20882,107.4
20884,105.3
20886,105.7
20888,110.0
20890,113.9
20892,119.1
20894,122.8
20896,127.1
20898,131.8
20900,133.6
20902,132.9
20904,131.7
20906,130.0
20908,129.1
20910,128.4
20912,127.1
20914,125.0
20916,122.8
20918,120.7
20920,118.7
20922,116.0
20924,113.0
20926,111.3
20928,114.8
20930,119.4
20932,122.8
20934,126.6
20936,130.8
20938,134.6
20940,136.2
20942,135.8
20944,135.2
20946,134.6
20948,133.4
20950,132.4
20952,132.0
20954,130.7
20956,128.6
20958,127.5
20960,125.7
20962,123.0
20964,121.9
20966,119.9
20968,119.6
20970,121.9
20972,123.4
20974,125.3
20976,128.2
20978,129.9
20980,131.5
20982,132.0
20984,132.9
20986,132.7
20988,133.5
20990,133.9
20992,133.7
20994,134.4
20996,132.8
20998,131.3
21000,129.3
21002,127.4
21004,125.9
21006,124.8
21008,124.4
21010,124.8
21012,125.0
21014,124.9
21016,125.2
21018,126.4
21020,126.5
21022,128.2
21024,128.9
21026,130.5
21028,132.4
21030,133.0
21032,134.3
21034,136.3
21036,136.1
21038,134.9
21040,133.2
21042,131.5
21044,129.2
21046,128.1
21048,126.9
21050,126.0
21052,126.2
21054,125.5
21056,124.5
21058,124.5
21060,124.3
21062,125.0
21064,128.5
21066,132.0
21068,134.6
21070,138.0
21072,141.5
21074,144.8
21076,142.3
21078,140.6
21080,138.3
