0,-9.8
1,33.5
2,23.6
4,19.0
5,13.3
6,16.0
7,26.2
9,24.2
10,46.8
11,17.1
12,33.9
14,13.3
17,-4.7
19,23.5
20,15.5
21,22.0
24,4.2
25,5.6
26,31.9
27,20.7
31,7.1
32,24.3
33,21.0
36,12.3
37,27.9
40,23.3
41,18.5
42,17.8
43,21.0
46,16.7
48,18.3
50,19.6
52,28.8
54,7.4
56,34.1
58,17.0
59,30.5
61,23.9
62,23.6
68,20.8
69,13.3
71,36.5
76,24.5
78,9.5
79,24.9
80,18.5
82,34.7
84,29.5
86,8.7
90,44.2
91,16.1
94,15.4
95,33.6
97,16.4
99,-7.2
100,15.9
106,9.3
108,46.8
109,31.0
112,21.8
113,6.9
116,14.0
118,-12.4
121,10.3
122,23.1
123,22.4
129,31.6
130,9.0
131,41.6
133,14.1
137,22.7
141,23.6
147,24.8
148,23.5
149,4.3
151,33.9
156,17.8
158,13.2
160,8.2
161,23.6
163,30.7
164,4.7
165,12.3
166,18.7
169,27.7
170,16.8
172,28.8
182,23.6
185,22.3
187,34.9
193,23.6
194,6.0
201,17.6
202,23.2
203,15.9
206,19.0
210,21.4
211,21.2
212,22.5
213,13.5
214,15.9
215,25.1
217,11.9
224,8.2
226,14.9
227,23.2
229,21.7
230,16.6
231,6.3
232,19.8
233,15.9
235,28.9
236,28.9
237,30.3
239,7.5
241,18.3
242,13.0
243,10.8
245,18.2
247,33.3
249,14.6
251,16.4
253,10.8
256,22.0
257,29.1
259,7.3
261,15.8
263,28.1
264,20.5
265,3.0
268,12.2
272,13.8
273,28.6
274,10.8
276,9.2
277,23.8
284,5.6
285,29.0
286,31.2
293,13.3
295,14.1
296,9.3
297,29.9
298,34.6
299,9.1
300,8.3
304,5.6
306,18.2
307,16.3
309,13.0
310,22.7
313,13.3
314,5.9
315,30.0
317,9.6
318,20.6
319,11.8
321,20.1
322,27.9
324,5.6
330,4.0
333,13.3
339,31.2
341,21.8
344,5.6
345,9.9
346,24.6
349,5.3
351,19.0
353,13.3
358,24.7
360,20.8
363,5.6
364,11.3
366,22.4
367,18.7
368,29.8
369,27.0
371,7.3
372,15.9
373,14.8
375,34.5
376,11.3
377,8.6
378,33.8
381,28.4
382,8.2
383,32.4
384,5.5
385,10.6
386,25.1
388,26.3
389,27.6
391,16.5
393,15.9
394,22.4
396,31.0
397,22.5
403,8.2
405,24.0
409,4.5
410,34.0
412,15.9
413,15.1
415,13.1
417,21.3
419,27.8
421,9.9
422,10.8
425,17.6
429,20.8
432,30.2
433,8.2
434,34.7
436,17.4
440,21.7
442,10.8
447,19.6
450,18.9
451,26.4
452,10.8
453,4.6
461,7.7
462,18.6
463,5.6
466,16.8
469,23.9
470,5.1
471,7.5
473,13.3
474,27.3
476,17.3
479,31.5
480,7.8
481,11.2
483,5.6
485,32.5
486,13.4
487,34.0
488,8.1
489,22.5
491,5.3
492,13.3
496,19.0
499,24.6
500,33.6
502,5.6
504,21.3
508,32.8
509,29.4
512,13.3
513,15.6
514,13.3
515,5.2
516,8.4
521,28.1
522,8.2
523,7.6
525,32.2
526,22.9
527,17.5
530,18.8
532,13.3
533,13.8
535,17.2
537,9.5
540,33.1
541,9.6
542,10.8
547,22.9
548,14.3
549,10.7
552,8.2
558,23.7
560,24.5
561,17.6
562,8.2
566,4.9
569,19.5
571,15.9
574,18.9
576,16.1
579,20.8
580,25.2
581,10.8
582,14.1
585,22.5
587,22.6
591,14.1
592,10.8
594,7.0
595,29.5
596,11.2
597,11.0
598,4.2
601,29.7
602,34.1
603,5.6
604,12.9
612,10.8
613,26.6
614,10.8
617,9.2
619,29.7
620,31.9
621,5.7
622,5.6
623,27.0
624,16.2
625,24.4
628,33.3
629,32.8
631,13.3
632,6.1
638,26.2
642,5.6
643,18.6
644,32.6
645,23.8
647,23.6
651,13.3
652,18.4
653,8.9
655,27.9
657,20.6
662,5.6
665,20.9
668,11.6
670,14.7
671,13.3
672,14.0
673,24.9
674,21.2
676,9.3
678,22.1
680,13.5
681,5.6
682,25.1
683,14.7
684,26.1
685,13.7
688,16.6
690,34.3
691,15.9
695,14.2
698,15.4
699,6.6
701,8.2
704,6.1
705,14.4
706,5.6
708,30.4
709,5.5
710,15.9
711,13.6
712,6.9
715,17.9
716,13.5
720,10.8
722,18.6
724,27.7
725,23.8
727,15.1
729,8.4
730,17.6
731,20.4
732,8.2
738,27.0
741,10.8
745,26.7
746,7.5
751,10.8
752,28.5
754,18.3
755,15.0
756,13.3
758,29.0
761,5.6
764,21.7
765,10.2
766,13.0
767,31.9
769,10.3
771,10.8
775,14.3
776,19.1
777,20.6
778,10.9
779,7.9
781,5.6
782,10.8
784,6.6
785,28.4
786,25.3
788,11.4
790,24.0
791,13.3
792,32.5
798,34.4
800,17.2
801,5.6
802,5.2
806,18.7
809,20.6
810,9.4
811,13.3
812,32.3
813,6.1
818,28.6
821,8.2
822,18.9
823,18.7
829,4.3
830,13.3
833,29.6
836,17.5
839,13.8
840,8.2
841,5.9
843,9.6
846,17.8
847,13.5
849,15.9
851,14.1
852,24.5
853,32.7
855,26.6
858,19.0
859,29.0
861,8.2
863,19.9
865,7.1
867,21.5
869,7.3
870,13.3
871,17.2
873,18.8
877,13.1
879,31.0
880,10.8
881,19.4
885,26.8
888,17.7
890,8.2
893,15.7
894,9.0
895,29.1
896,22.3
897,6.0
899,13.6
900,10.8
902,10.5
905,16.3
907,22.2
910,8.2
911,21.8
912,31.5
915,23.5
919,13.3
922,17.3
923,34.1
925,14.6
928,22.9
929,21.8
930,8.2
934,28.5
935,25.4
936,7.5
937,20.5
940,13.3
942,21.2
946,18.9
948,21.9
950,10.8
951,20.5
953,11.3
956,32.9
959,26.0
960,5.6
962,9.1
963,25.8
968,20.7
969,13.3
971,16.7
973,20.2
975,32.0
979,5.6
982,9.3
983,13.1
986,12.6
989,13.3
990,33.1
992,28.1
994,13.2
998,27.3
999,31.9
1000,8.2
1001,24.8
1002,26.5
1003,22.1
1004,17.6
1007,21.4
1008,31.2
1009,29.5
1010,8.2
1011,31.6
1017,14.2
1018,26.0
1020,0.5
1021,14.8
1023,20.1
1025,33.3
1026,27.0
1027,30.1
1028,5.6
1031,0.5
1032,8.4
1033,17.7
1035,22.1
1037,26.7
1038,22.9
1039,31.8
1040,30.2
1041,28.8
1042,30.0
1043,29.4
1049,13.3
1051,20.8
1052,-12.4
1053,23.8
1062,32.1
1063,18.0
1065,41.6
1067,6.5
1068,4.4
1073,14.2
1075,22.0
1076,13.3
1077,23.6
1079,33.9
1080,32.7
1081,29.1
1086,28.5
1087,28.6
1088,18.5
1091,10.4
1093,19.4
1094,31.1
1097,20.2
1098,16.1
1099,3.0
1101,20.2
1103,6.6
1110,3.0
1112,26.5
1116,23.8
1120,13.3
1122,10.5
1123,19.6
1125,27.3
1128,30.3
1129,7.5
1131,6.5
1132,-9.8
1135,11.6
1136,34.6
1139,19.2
1140,20.7
1143,46.8
1144,12.5
1145,32.4
1146,21.9
1149,31.5
1150,4.7
1153,28.6
1154,24.4
1155,21.0
1159,30.9
1161,30.2
1162,21.8
1164,30.2
1166,28.8
1167,29.8
1168,17.8
1173,21.9
1174,15.5
1177,15.9
1179,8.6
1181,30.7
1182,32.7
1184,22.1
1185,10.9
1187,28.5
1189,5.6
1190,6.8
1191,29.7
1192,13.7
1194,19.6
1195,27.3
1197,27.4
1198,18.4
1199,27.2
1200,0.5
1201,27.8
1202,24.7
1207,10.0
1210,0.5
1211,24.9
1213,4.6
1215,27.1
1216,7.8
1218,11.5
1219,22.1
1220,23.6
1222,4.3
1223,33.7
1224,20.5
1229,30.4
1230,34.5
1231,-12.4
1232,13.5
1234,24.0
1235,13.8
1239,7.8
1241,26.4
1244,39.1
1248,5.3
1250,5.8
1251,20.5
1252,29.6
1253,28.7
1255,26.2
1256,30.5
1258,26.2
1260,5.3
1261,14.2
1266,31.3
1267,18.5
1269,13.3
1270,26.2
1273,10.4
1275,6.2
1277,14.6
1278,5.6
1280,25.6
1281,28.4
1288,19.4
1289,5.6
1290,15.8
1291,16.5
1293,32.4
1297,6.4
1299,10.8
1302,25.4
1308,19.8
1310,-9.8
1312,22.6
1316,21.6
1318,10.5
1319,11.5
1320,23.2
1321,46.8
1324,25.8
1326,23.4
1327,20.9
1330,34.2
1334,18.5
1341,34.3
1342,30.1
1345,31.3
1356,18.5
1358,17.3
1359,15.4
1360,33.6
1362,18.0
1365,11.6
1367,24.2
1368,8.2
1369,30.7
1370,29.4
1372,11.4
1373,19.1
1375,9.8
1376,14.7
1378,3.0
1382,31.2
1384,7.1
1386,13.0
1387,16.2
1389,3.0
1391,25.0
1392,5.3
1393,8.2
1395,19.7
1399,23.6
1402,11.4
1404,19.1
1407,18.2
1411,-12.4
1414,30.5
1415,20.9
1419,17.1
1420,27.7
1423,41.6
1424,15.7
1425,4.1
1426,32.3
1427,13.1
1431,20.2
1432,15.7
1434,23.6
1437,11.9
1439,6.1
1440,25.8
1442,16.8
1443,5.1
1444,7.3
1445,21.0
1446,35.0
1448,18.3
1451,33.4
1452,23.7
1453,10.3
1454,20.6
1458,5.6
1460,29.4
1462,32.5
1463,16.7
1465,12.2
1468,5.6
1469,34.2
1474,33.9
1478,5.6
1479,5.2
1480,24.7
1482,21.0
1485,8.2
1486,34.4
1487,4.3
1488,-2.1
1490,8.4
1494,17.0
1495,17.1
1496,32.9
1500,46.8
1507,19.8
1509,7.2
1510,23.6
1511,-4.7
1512,25.0
1514,18.1
1516,20.4
1517,21.9
1519,22.4
1523,39.1
1526,28.6
1529,32.7
1531,21.8
1532,21.8
1533,5.4
1534,23.6
1536,19.4
1538,12.1
1541,27.4
1544,32.4
1545,30.7
1546,18.5
1548,23.4
1549,25.5
1550,4.1
1551,9.4
1555,19.7
1556,27.7
1557,3.0
1562,12.6
1563,23.0
1564,18.1
1565,12.4
1567,3.0
1571,13.9
1577,15.9
1578,33.8
1579,7.5
1581,25.9
1584,29.8
1585,27.8
1587,20.7
1588,31.7
1590,-9.8
1592,8.2
1593,19.2
1596,18.1
1597,31.5
1598,4.7
1601,46.8
1605,34.0
1606,29.0
1610,33.8
1611,34.5
1612,21.0
1618,28.5
1619,27.5
1621,30.0
1624,28.8
1629,29.4
1630,28.0
1631,27.7
1634,5.1
1635,13.3
1637,13.5
1638,10.5
1639,19.6
1641,20.2
1642,6.0
1644,19.3
1646,8.2
1652,21.0
1653,17.7
1654,27.2
1655,33.8
1657,0.5
1658,10.9
1660,11.3
1661,16.5
1662,27.6
1663,17.9
1667,29.7
1668,0.5
1670,6.9
1671,26.2
1672,22.8
1674,23.3
1676,7.5
1678,28.8
1681,33.5
1683,10.0
1684,29.6
1686,31.1
1688,34.0
1689,-12.4
1690,9.8
1692,8.0
1693,8.1
1697,12.2
1698,9.2
1700,5.2
1701,39.1
1704,12.1
1705,24.3
1706,9.3
1707,31.0
1710,31.7
1711,22.9
1712,26.4
1713,23.6
1715,15.0
1721,18.3
1722,4.2
1723,27.5
1724,6.1
1725,18.5
1726,5.8
1728,25.4
1731,25.4
1732,30.0
1733,12.4
1734,21.5
1736,5.6
1737,8.9
1739,15.5
1741,28.2
1744,30.0
1745,23.9
1746,3.0
1748,5.8
1750,19.0
1751,23.1
1754,7.1
1756,23.7
1757,13.3
1761,8.5
1762,27.3
1763,20.9
1765,18.4
1767,22.2
1768,-12.4
1775,26.8
1776,18.7
1780,44.2
1781,27.1
1786,34.5
1792,30.8
1793,23.6
1795,21.8
1796,10.3
1797,9.5
1799,6.4
1801,19.4
1802,13.3
1803,8.5
1804,23.6
1810,13.0
1811,12.2
1812,31.6
1813,24.0
1815,10.8
1816,10.6
1818,17.0
1819,7.3
1820,29.7
1822,5.6
1826,0.5
1830,10.0
1837,28.8
1838,15.9
1839,17.4
1840,25.3
1843,10.7
1844,18.7
1846,8.6
1847,16.4
1848,-15.0
1849,25.5
1851,9.3
1853,33.0
1856,8.7
1861,39.1
1863,5.1
1864,22.4
1865,28.2
1866,11.3
1867,31.7
1870,16.8
1872,23.6
1874,8.2
1877,21.7
1878,10.1
1880,33.7
1883,22.1
1884,18.5
1886,4.3
1887,18.4
1888,22.8
1889,4.9
1893,7.0
1894,11.5
1895,3.0
1896,14.3
1900,28.7
1903,33.9
1905,3.0
1906,4.8
1908,18.3
1909,23.1
1910,6.8
1912,27.3
1914,5.1
1915,10.8
1916,18.0
1917,9.0
1920,7.4
1928,-7.2
1929,20.8
1931,15.8
1936,5.3
1937,19.8
1939,46.8
1941,31.4
1944,24.3
1948,19.4
1949,9.8
1950,21.0
1954,4.8
1955,29.5
1959,13.8
1960,32.6
1961,31.3
1965,28.0
1969,27.0
1973,15.9
1974,28.6
1981,35.0
1982,7.4
1983,9.2
1984,5.6
1985,29.0
1987,33.9
1992,18.7
1993,4.2
1995,3.0
2001,12.0
2003,11.6
2004,5.7
2006,3.0
2009,34.3
2010,29.6
2012,27.5
2013,13.1
2015,28.4
2016,26.2
2021,32.0
2024,9.7
2025,8.5
2027,-12.4
2028,24.1
2029,4.5
2030,14.6
2031,10.7
2032,22.2
2034,27.4
2035,8.4
2037,26.7
2039,41.6
2040,33.0
2044,26.6
2047,22.1
2048,13.5
2050,29.5
2051,23.6
2052,28.7
2057,18.7
2060,9.6
2063,18.5
2066,23.1
2068,10.5
2069,9.7
2070,23.9
2073,14.9
2074,5.6
2075,6.9
2076,32.6
2081,18.6
2083,6.4
2084,5.6
2086,18.4
2088,29.4
2089,26.3
2091,4.7
2092,34.1
2093,8.2
2095,8.2
2096,33.4
2097,29.6
2098,15.1
2099,20.7
2102,7.5
2103,5.1
2105,-2.1
2106,7.3
2108,21.8
2109,7.4
2110,33.6
2114,20.6
2115,32.6
2116,44.2
2117,6.8
2119,29.0
2120,20.8
2122,16.5
2123,27.5
2124,12.9
2125,22.8
2126,20.6
2127,16.8
2128,-2.1
2131,18.8
2134,17.3
2138,31.2
2139,34.4
2140,36.5
2141,24.9
2142,7.9
2143,18.4
2145,35.0
2146,32.1
2147,19.5
2150,12.3
2151,23.6
2153,18.1
2154,4.7
2155,27.2
2157,17.6
2160,24.4
2162,15.9
2163,34.3
2164,34.3
2165,7.4
2170,5.0
2173,3.0
2174,13.0
2175,30.2
2176,8.0
2179,17.6
2183,5.4
2184,3.0
2185,16.5
2191,26.8
2193,27.7
2195,18.5
2197,32.9
2198,27.8
2202,33.2
2204,10.2
2206,-12.4
2209,22.8
2212,26.6
2215,8.0
2216,10.1
2217,14.1
2218,11.1
2219,41.6
2221,20.8
2223,19.8
2225,12.4
2228,33.3
2230,23.6
2236,5.2
2239,8.9
2241,21.0
2242,10.9
2243,33.9
2246,16.7
2247,12.5
2249,9.8
2251,26.1
2252,5.6
2253,4.3
2255,6.0
2257,9.2
2259,27.0
2260,19.2
2261,33.1
2262,8.6
2263,4.5
2264,5.6
2266,32.0
2269,4.0
2271,10.5
2272,10.8
2274,0.5
2277,5.9
2279,4.6
2281,20.1
2282,11.7
2284,0.5
2285,13.0
2287,26.1
2290,16.5
2291,11.4
2292,7.4
2293,4.1
2294,31.3
2295,20.0
2297,21.7
2299,28.1
2302,35.0
2303,7.8
2305,7.7
2306,-15.0
2307,28.7
2309,4.7
2315,33.6
2318,39.1
2320,30.4
2321,15.9
2324,27.3
2325,23.5
2326,29.4
2327,8.3
2328,19.3
2329,32.9
2330,21.0
2332,27.0
2336,22.0
2337,20.5
2338,28.0
2340,26.5
2341,18.5
2342,26.9
2344,23.2
2345,16.0
2348,20.8
2349,26.7
2352,13.3
2353,5.6
2356,34.7
2362,33.5
2363,3.0
2365,33.2
2367,30.9
2368,21.0
2370,18.9
2371,12.0
2372,11.6
2373,15.9
2374,5.6
2379,32.6
2381,29.3
2382,34.1
2383,20.0
2384,-9.8
2385,25.2
2387,11.7
2394,7.7
2397,46.8
2399,7.0
2400,29.9
2401,33.5
2407,6.6
2408,21.0
2411,7.0
2417,31.4
2418,13.9
2419,28.8
2420,24.5
2423,21.2
2425,15.5
2426,12.0
2430,15.9
2431,19.5
2432,27.5
2435,33.8
2437,13.6
2438,34.2
2440,9.9
2442,8.2
2448,12.1
2449,30.3
2450,4.4
2452,0.5
2453,15.3
2454,14.0
2455,11.4
2456,16.8
2457,4.9
2459,14.0
2463,0.5
2465,33.2
2467,22.8
2468,11.8
2469,22.0
2471,25.8
2473,28.8
2474,30.8
2481,17.4
2485,-12.4
2490,8.6
2493,5.7
2497,39.1
2498,5.8
2502,8.3
2504,31.3
2508,23.6
2511,26.4
2512,29.1
2513,25.9
2515,20.7
2517,6.8
2519,19.7
2520,18.5
2523,32.5
2524,24.2
2525,19.9
2527,22.5
2528,27.8
2532,5.6
2537,34.0
2538,8.6
2542,3.0
2547,31.6
2548,8.4
2551,20.5
2552,10.8
2559,19.5
2560,6.2
2561,12.1
2563,14.1
2564,-12.4
2568,8.2
2574,11.0
2576,41.6
2578,32.3
2581,23.8
2582,10.0
2583,13.7
2585,33.5
2586,10.9
2587,34.9
2588,23.6
2591,4.5
2592,13.1
2595,8.9
2597,6.9
2599,23.6
2600,27.9
2602,33.5
2608,21.1
2609,14.3
2611,8.2
2612,21.0
2614,25.3
2615,33.1
2620,23.5
2621,8.2
2626,28.4
2630,34.2
2631,3.0
2634,14.7
2635,4.6
2637,24.6
2639,31.7
2640,7.5
2641,0.5
2642,5.0
2644,18.4
2645,9.4
2646,5.7
2649,17.2
2652,23.6
2653,4.7
2654,6.6
2656,21.4
2657,20.2
2659,18.2
2661,4.9
2662,26.4
2664,-12.4
2665,27.1
2667,9.4
2670,34.5
2672,7.9
2676,41.6
2679,26.8
2680,32.7
2682,17.2
2683,14.9
2684,7.9
2687,24.3
2688,23.6
2689,12.2
2693,20.5
2695,15.6
2696,19.4
2699,21.0
2701,17.3
2703,27.3
2706,11.0
2707,29.3
2708,31.6
2709,32.3
2710,8.2
2711,27.4
2712,13.7
2715,26.5
2720,34.1
2721,5.6
2725,13.5
2726,9.5
2728,8.5
2731,17.6
2732,5.6
2734,34.6
2735,30.4
2736,13.3
2737,29.6
2738,4.8
2741,23.3
2742,-2.1
2744,14.3
2745,4.2
2746,19.5
2747,27.0
2750,23.4
2753,44.2
2754,10.4
2756,26.7
2763,19.2
2764,-4.7
2765,8.6
2767,11.3
2768,21.3
2772,17.1
2773,19.2
2774,16.7
2775,9.2
2776,39.1
2777,33.1
2779,27.5
2780,27.2
2784,7.9
2785,18.2
2788,23.6
2790,33.5
2797,16.2
2799,18.5
2802,34.6
2804,19.8
2805,30.3
2806,25.8
2807,16.0
2809,14.9
2810,3.0
2812,25.7
2813,16.4
2816,8.7
2819,8.0
2820,34.5
2821,3.0
2822,33.6
2825,23.3
2828,17.7
2829,34.9
2831,18.5
2832,30.4
2834,17.7
2836,30.5
2838,12.4
2839,23.3
2840,18.7
2842,-9.8
2844,29.7
2849,24.5
2850,21.9
2852,23.8
2854,46.8
2855,15.2
2856,5.1
2857,34.2
2858,7.4
2860,19.8
2862,19.5
2864,19.0
2866,18.5
2868,13.3
2869,8.5
2875,11.3
2877,28.8
2879,30.8
2880,29.2
2884,13.5
2885,13.5
2886,17.0
2887,26.9
2888,15.9
2889,15.7
2890,8.7
2891,7.4
2893,6.7
2894,28.5
2898,17.4
2899,5.6
2902,11.8
2903,26.9
2906,15.0
2910,0.5
2912,15.1
2914,21.8
2916,9.3
2917,34.1
2921,0.5
2922,24.5
2925,12.6
2927,12.8
2928,29.4
2929,27.8
2930,7.1
2931,28.8
2935,26.0
2937,19.3
2938,10.1
2939,21.1
2941,20.5
2942,-12.4
2944,18.4
2945,4.1
2948,24.7
2950,11.2
2953,11.0
2954,25.0
2955,39.1
2960,28.5
2961,19.5
2965,30.8
2966,23.6
2968,29.0
2971,26.4
2972,20.4
2973,12.6
2974,28.8
2975,20.6
2976,34.8
2977,18.5
2979,16.6
2980,30.9
2982,4.6
2983,30.2
2990,3.0
3000,3.0
3010,13.3
3012,29.3
3013,34.8
3015,9.6
3016,9.0
3017,31.2
3020,13.6
3021,-9.8
3023,24.4
3025,12.6
3026,28.9
3027,9.8
3029,30.8
3030,7.7
3031,16.4
3032,13.6
3033,46.8
3034,27.1
3035,20.4
3037,4.1
3038,33.3
3039,19.4
3040,7.1
3041,26.6
3043,31.0
3044,18.5
3046,15.9
3049,34.6
3052,10.3
3054,5.9
3055,25.7
3056,28.8
3058,7.3
3060,17.8
3061,29.7
3062,23.3
3063,32.3
3064,5.5
3066,6.8
3067,15.9
3070,12.6
3071,33.1
3074,10.5
3077,32.5
3078,18.7
3079,5.6
3081,7.6
3086,7.3
3089,0.5
3090,25.4
3092,27.2
3096,22.3
3099,0.5
3100,18.5
3103,24.2
3104,16.9
3107,28.2
3109,23.6
3112,7.3
3114,23.5
3119,16.0
3121,32.7
3122,-12.4
3123,27.6
3124,33.1
3130,25.2
3133,23.1
3134,39.1
3136,27.3
3138,5.6
3139,19.7
3143,7.1
3144,24.1
3145,23.6
3146,30.2
3147,23.7
3148,29.5
3152,14.2
3153,15.3
3156,18.5
3158,4.3
3160,7.7
3161,10.4
3163,17.6
3165,10.9
3166,20.4
3167,25.9
3168,5.6
3169,4.7
3170,32.6
3171,21.3
3172,25.0
3173,30.0
3174,20.2
3175,4.1
3176,8.3
3178,3.0
3179,18.5
3180,27.6
3181,26.2
3186,18.5
3187,33.3
3188,7.3
3189,8.2
3191,4.9
3192,25.4
3194,7.4
3196,23.1
3197,34.3
3199,8.8
3200,-2.1
3202,31.7
3203,25.0
3207,31.3
3209,22.2
3211,44.2
3213,34.6
3215,11.8
3219,19.2
3220,7.7
3221,10.1
3222,-2.1
3223,14.5
3224,11.0
3229,17.9
3230,17.0
3231,30.8
3233,39.1
3235,31.9
3237,4.2
3238,28.7
3240,21.0
3241,24.9
3244,26.2
3245,21.0
3246,15.4
3248,14.9
3249,30.9
3250,19.5
3252,4.5
3256,24.2
3257,15.9
3259,24.7
3264,13.1
3265,28.8
3268,3.0
3270,8.2
3272,31.2
3274,33.9
3275,9.0
3276,29.6
3278,0.5
3279,16.1
3280,5.2
3282,34.8
3284,22.7
3286,27.7
3287,21.1
3288,30.3
3289,18.5
3290,12.0
3291,24.7
3292,4.6
3293,28.8
3294,25.1
3299,15.1
3300,-12.4
3302,17.5
3303,25.4
3305,11.6
3306,30.3
3309,32.3
3310,15.3
3311,27.2
3312,41.6
3314,31.2
3315,8.4
3316,14.0
3317,26.8
3318,30.0
3321,31.7
3323,29.5
3324,23.6
3325,16.0
3327,4.1
3328,32.8
3329,10.7
3334,15.3
3336,21.0
3338,34.4
3339,33.6
3341,24.1
3343,27.8
3344,31.7
3347,5.6
3355,8.9
3357,3.0
3361,30.3
3365,25.8
3367,-2.1
3370,25.5
3377,23.2
3379,-7.2
3385,30.8
3386,21.9
3388,12.9
3391,46.8
3393,30.5
3394,19.6
3398,10.8
3399,4.3
3400,32.3
3402,15.9
3405,26.9
3406,22.6
3408,29.1
3409,29.2
3411,13.8
3414,31.3
3415,11.1
3416,8.6
3418,15.4
3422,6.2
3424,18.8
3425,15.9
3428,15.3
3432,29.0
3436,8.2
3437,21.1
3440,16.0
3441,13.0
3446,3.0
3447,26.1
3451,11.6
3452,24.7
3453,33.0
3454,30.7
3455,11.2
3456,21.0
3457,6.9
3458,3.0
3459,14.1
3461,29.4
3467,31.3
3468,13.3
3470,12.6
3471,19.5
3472,12.0
3473,34.8
3474,19.2
3475,29.4
3476,22.1
3479,-9.8
3480,17.2
3484,33.7
3486,13.9
3490,46.8
3491,11.7
3493,14.4
3494,27.1
3497,32.3
3498,7.4
3502,18.5
3503,20.9
3504,6.4
3510,17.9
3512,19.3
3513,28.8
3515,29.0
3516,8.2
3520,22.4
3521,27.7
3522,19.4
3524,7.1
3525,13.3
3533,15.2
3534,8.8
3536,5.6
3539,30.5
3540,23.8
3542,27.6
3545,29.2
3547,0.5
3548,18.3
3549,11.0
3551,15.9
3553,8.8
3555,28.4
3556,17.5
3557,-2.1
3559,26.9
3561,34.7
3566,27.9
3567,17.1
3568,41.6
3570,18.3
3572,8.4
3579,-15.0
3581,15.1
3583,17.7
3586,4.8
3587,10.3
3590,29.6
3591,18.4
3592,15.2
3593,33.9
3600,29.0
3601,27.4
3604,21.0
3607,18.9
3608,34.8
3609,27.3
3610,18.9
3614,26.4
3615,10.8
3617,10.7
3619,19.1
3622,13.5
3623,11.1
3625,4.5
3627,13.3
3628,9.8
3633,17.7
3637,29.5
3638,-9.8
3639,30.1
3642,19.6
3647,14.1
3649,44.2
3650,18.2
3654,9.6
3656,5.5
3657,21.4
3658,14.3
3659,27.9
3660,16.2
3661,18.5
3663,20.4
3668,34.4
3669,31.7
3671,9.8
3672,20.0
3673,31.3
3674,13.3
3675,5.4
3678,16.9
3680,11.8
3682,4.3
3683,24.2
3684,15.9
3686,15.7
3688,10.4
3690,18.8
3694,6.1
3695,8.2
3700,29.9
3703,10.4
3705,3.0
3710,14.5
3711,26.5
3714,34.0
3716,0.5
3717,16.4
3720,16.9
3721,8.3
3723,22.7
3726,10.8
3727,26.2
3728,20.4
3730,26.4
3731,29.9
3733,22.8
3736,16.6
3738,-12.4
3743,24.8
3745,4.9
3747,12.2
3750,39.1
3751,32.5
3752,20.2
3760,16.2
3761,25.1
3762,23.6
3764,9.5
3765,25.5
3767,28.2
3768,28.1
3769,12.1
3770,14.8
3771,4.8
3773,18.5
3774,20.3
3775,29.9
3776,27.9
3779,18.7
3780,21.9
3785,5.6
3787,27.0
3788,33.7
3790,14.1
3791,30.5
3792,17.3
3793,12.0
3794,4.3
3795,3.0
3796,9.9
3797,24.3
3799,14.0
3801,18.0
3804,26.8
3806,5.6
3809,19.5
3815,31.3
3816,0.5
3817,19.5
3821,14.5
3822,11.9
3823,17.5
3824,6.4
3825,25.8
3826,33.9
3829,4.9
3831,29.8
3834,20.3
3835,8.6
3837,-15.0
3838,9.6
3839,10.5
3840,16.5
3842,30.0
3843,18.1
3844,10.4
3847,5.8
3848,9.5
3850,36.5
3851,33.3
3852,8.6
3856,7.2
3857,27.6
3861,29.9
3862,23.6
3867,29.7
3868,24.2
3869,19.2
3871,22.8
3872,34.0
3873,15.9
3877,7.3
3881,9.1
3883,28.2
3885,3.0
3887,8.9
3890,31.4
3891,15.5
3892,13.0
3895,0.5
3897,30.0
3898,16.5
3903,21.2
3904,5.0
3905,18.5
3907,9.4
3910,7.2
3911,17.2
3914,21.9
3915,10.4
3916,-9.8
3918,30.6
3919,9.6
3920,4.9
3924,9.6
3925,16.8
3928,33.8
3929,44.2
3930,21.6
3932,21.0
3933,7.0
3936,34.4
3938,12.3
3940,21.0
3941,25.0
3942,12.3
3943,29.7
3944,5.9
3946,20.9
3948,30.9
3950,18.0
3951,26.2
3953,31.4
3954,27.5
3955,32.6
3960,29.0
3961,6.5
3962,15.9
3964,32.6
3966,17.8
3967,28.1
3970,31.5
3971,25.2
3973,33.2
3974,5.6
3979,13.0
3981,10.1
3985,0.5
3986,9.7
3988,29.9
3991,9.7
3995,-2.1
3999,32.4
4000,15.7
4002,10.9
4004,7.5
4006,44.2
4007,29.1
4009,9.0
4015,12.6
4018,-9.8
4023,17.8
4024,34.3
4029,39.1
4030,32.4
4034,4.2
4035,10.9
4038,21.4
4039,27.0
4040,23.6
4042,27.4
4043,14.1
4044,5.9
4046,31.3
4047,23.1
4048,23.0
4050,34.6
4051,14.1
4052,18.5
4053,25.7
4057,10.8
4060,22.7
4061,7.9
4063,25.7
4064,3.0
4065,34.7
4072,19.3
4074,3.0
4077,20.8
4079,6.7
4080,31.7
4081,7.7
4084,13.3
4085,16.0
4086,14.8
4092,5.5
4095,34.2
4096,-9.8
4099,21.5
4100,17.3
4104,7.9
4107,44.2
4110,17.3
4112,17.0
4113,16.2
4114,14.3
4119,18.5
4123,9.3
4125,30.8
4129,21.1
4130,28.8
4133,13.4
4137,34.3
4138,22.2
4139,12.2
4140,27.2
4142,15.9
4144,22.2
4147,4.7
4149,26.4
4150,19.7
4153,8.2
4154,20.9
4157,13.3
4158,4.1
4160,27.2
4162,34.8
4163,0.5
4166,27.4
4167,30.2
4171,4.7
4173,3.0
4174,5.4
4179,4.3
4184,26.2
4186,26.2
4188,7.2
4189,33.8
4193,30.2
4196,-12.4
4205,22.4
4206,9.1
4208,39.1
4214,27.9
4216,32.0
4219,23.6
4220,28.1
4223,33.3
4227,31.3
4228,11.4
4229,5.0
4231,18.5
4235,12.0
4237,21.7
4238,5.1
4239,11.0
4242,5.6
4246,31.9
4247,14.8
4251,10.0
4253,5.6
4256,10.4
4258,4.2
4259,9.2
4260,15.1
4263,5.6
4264,5.3
4265,29.1
4267,32.1
4274,-2.1
4276,29.0
4277,14.7
4281,34.2
4283,7.5
4284,31.4
4285,46.8
4286,11.0
4288,14.5
4289,14.2
4291,26.3
4292,31.8
4293,11.0
4296,-2.1
4302,16.5
4305,19.6
4306,21.2
4307,36.5
4308,21.4
4309,25.5
4311,10.5
4312,10.0
4313,28.0
4316,10.0
4319,9.0
4320,23.6
4321,30.3
4322,16.2
4328,9.1
4329,17.2
4330,4.2
4331,13.3
4332,20.7
4333,14.8
4334,27.1
4335,20.7
4336,24.0
4337,7.8
4339,29.8
4340,28.4
4341,27.3
4342,3.0
4345,6.8
4346,31.3
4347,5.8
4349,28.2
4353,0.5
4354,27.3
4355,16.2
4356,32.1
4357,23.0
4359,23.1
4363,21.0
4366,33.5
4369,7.7
4370,11.5
4371,19.4
4372,10.1
4374,-12.4
4375,18.9
4377,13.6
4378,15.5
4381,9.0
4382,32.1
4384,15.9
4386,22.5
4387,39.1
4388,30.9
4393,23.9
4394,21.6
4395,32.0
4396,14.6
4398,34.6
4399,23.6
4400,7.0
4402,8.1
4403,16.3
4405,6.4
4407,11.1
4408,18.9
4409,11.2
4410,21.0
4413,16.4
4415,33.3
4416,30.5
4421,5.6
4422,12.5
4428,13.9
4431,5.6
4434,24.7
4438,19.8
4439,32.5
4442,0.5
4443,11.8
4444,7.2
4446,32.1
4447,25.7
4453,0.5
4454,31.6
4455,17.2
4457,17.9
4460,27.8
4463,31.3
4464,4.8
4471,21.7
4472,8.9
4474,-12.4
4476,27.0
4481,20.5
4483,12.3
4487,36.5
4490,31.1
4492,12.4
4494,9.9
4498,23.6
4499,25.9
4500,5.9
4501,25.4
4504,30.7
4505,15.0
4508,13.9
4509,15.9
4510,12.4
4511,26.3
4521,5.6
4522,8.3
4524,22.0
4528,7.3
4532,3.0
4536,11.4
4537,30.1
4538,20.0
4539,17.7
4540,32.4
4541,18.3
4542,15.9
4543,8.3
4547,18.5
4548,34.2
4549,15.6
4550,27.0
4552,30.7
4553,-9.8
4554,8.8
4555,6.9
4556,20.9
4560,26.0
4561,11.9
4564,44.2
4566,28.7
4568,14.0
4569,32.9
4570,28.5
4572,22.3
4573,26.8
4575,34.0
4576,21.0
4577,13.4
4578,20.8
4579,19.3
4582,17.4
4584,23.7
4586,29.7
4587,10.1
4588,28.8
4589,10.5
4590,11.3
4591,9.3
4593,22.3
4594,21.3
4595,15.0
4597,15.1
4599,15.9
4600,23.1
4601,5.8
4604,14.5
4605,26.2
4607,24.6
4608,33.8
4609,12.5
4611,8.2
4613,31.4
4615,14.3
4616,19.6
4618,28.3
4619,26.8
4621,3.0
4622,20.4
4623,29.7
4626,20.8
4627,34.2
4628,13.9
4630,17.6
4631,3.0
4636,28.6
4637,8.2
4641,26.2
4642,28.4
4644,4.6
4651,19.7
4654,-15.0
4656,16.3
4659,7.9
4662,22.1
4663,9.2
4666,39.1
4668,13.5
4669,10.7
4671,28.2
4672,31.1
4673,26.9
4674,6.5
4675,22.2
4677,23.6
4678,9.2
4679,8.9
4680,9.7
4683,14.9
4685,27.4
4687,20.5
4688,18.5
4689,14.9
4691,28.7
4692,32.9
4693,16.6
4694,27.5
4696,34.7
4697,17.9
4698,21.1
4700,3.0
4701,9.8
4705,27.6
4706,31.3
4708,24.0
4709,6.8
4710,5.6
4717,33.3
4718,28.6
4719,11.6
4720,12.5
4721,10.8
4722,12.9
4723,21.8
4724,22.4
4726,28.4
4729,22.8
4730,24.3
4732,-9.8
4733,16.2
4734,29.8
4735,17.7
4737,8.2
4740,16.4
4741,12.1
4744,44.2
4746,29.8
4750,14.6
4752,30.0
4753,33.8
4755,15.9
4757,15.2
4758,10.0
4760,6.1
4762,29.9
4763,24.1
4765,4.6
4766,31.3
4768,11.2
4770,6.3
4771,26.9
4773,6.6
4775,10.8
4776,15.5
4777,15.9
4779,10.2
4782,23.2
4783,8.2
4784,13.2
4785,18.4
4786,6.7
4790,8.2
4792,22.3
4793,15.9
4795,4.2
4798,5.5
4800,3.0
4805,33.9
4808,32.9
4810,3.0
4812,8.5
4817,19.1
4820,21.0
4821,5.2
4822,16.4
4823,16.4
4824,32.6
4825,27.2
4826,29.8
4827,5.7
4828,34.2
4832,-12.4
4834,31.0
4835,16.1
4836,10.8
4838,20.3
4840,33.1
4841,4.3
4842,21.7
4844,41.6
4845,11.1
4846,9.4
4849,12.4
4850,6.8
4851,29.6
4852,24.4
4853,30.6
4854,24.9
4856,23.6
4857,10.4
4858,30.9
4860,10.1
4861,16.7
4863,4.4
4864,33.0
4865,23.1
4866,12.8
4867,6.9
4868,21.0
4870,17.5
4877,8.3
4878,10.2
4879,3.0
4880,7.1
4881,14.8
4882,31.9
4886,12.9
4888,32.4
4889,5.6
4890,10.1
4892,9.5
4895,18.6
4897,31.7
4899,3.0
4900,20.2
4901,18.8
4903,17.0
4905,32.5
4908,5.0
4909,30.6
4910,-2.1
4911,10.5
4913,11.8
4916,13.1
4922,44.2
4924,23.3
4925,5.4
4926,12.6
4928,17.3
4929,6.2
4933,-4.7
4934,14.2
4937,14.5
4938,19.9
4941,17.7
4942,34.9
4943,29.9
4944,36.5
4946,19.3
4950,23.1
4952,9.9
4955,13.3
4956,23.6
4957,9.7
4959,31.3
4961,12.9
4964,10.8
4966,13.5
4967,18.5
4968,27.9
4970,6.4
4973,19.4
4975,10.8
4976,14.7
4978,5.6
4980,28.2
4982,28.7
4986,19.5
4988,16.1
4989,3.0
4992,11.9
4994,21.7
4996,34.9
4999,9.1
5000,18.5
5002,31.1
5003,28.0
5004,15.5
5011,-12.4
5013,11.0
5014,30.1
5015,8.2
5017,21.3
5020,5.3
5023,41.6
5025,25.3
5026,9.4
5027,20.0
5028,26.8
5035,23.6
5042,12.3
5043,24.2
5045,34.4
5046,21.0
5048,4.1
5052,14.5
5054,19.5
5055,14.5
5058,8.2
5064,31.5
5066,18.9
5068,8.2
5076,33.3
5079,3.0
5083,9.4
5084,16.1
5085,12.6
5086,14.0
5087,22.3
5088,4.5
5089,0.5
5090,28.7
5094,22.0
5095,10.8
5097,20.5
5099,26.2
5101,12.1
5107,17.2
5108,13.4
5109,30.2
5110,-12.4
5112,23.7
5116,26.8
5118,13.1
5119,18.1
5120,33.6
5122,20.2
5123,12.6
5124,39.1
5128,18.2
5129,16.3
5131,15.6
5132,20.8
5135,23.6
5138,18.0
5141,24.2
5144,30.5
5145,31.2
5146,18.5
5150,11.9
5153,16.8
5156,18.5
5157,5.6
5158,25.1
5160,16.0
5168,3.0
5175,11.2
5176,21.2
5177,29.1
5178,10.8
5182,33.9
5188,6.1
5190,-7.2
5196,24.4
5198,31.4
5201,46.8
5203,6.7
5204,15.6
5206,20.0
5209,22.9
5212,5.0
5213,21.0
5215,5.9
5216,18.0
5224,31.3
5227,32.7
5228,9.2
5230,30.1
5235,15.9
5236,4.3
5239,20.0
5240,14.4
5242,25.6
5243,24.1
5244,30.0
5246,8.2
5247,15.9
5248,13.0
5250,11.3
5254,16.8
5256,31.4
5258,3.0
5259,5.0
5260,31.9
5261,11.1
5263,11.7
5264,12.3
5266,17.2
5268,3.0
5270,19.8
5271,10.5
5272,16.3
5274,24.0
5275,24.6
5276,4.7
5278,23.6
5279,16.5
5283,25.7
5284,31.5
5286,7.7
5288,32.9
5289,-12.4
5291,9.7
5292,9.7
5302,41.6
5303,16.7
5304,30.6
5305,32.2
5308,23.9
5309,28.1
5310,23.0
5313,23.6
5314,27.9
5323,18.0
5324,24.1
5325,18.5
5326,17.4
5327,10.8
5328,27.6
5330,25.0
5332,29.1
5334,5.4
5336,18.6
5337,5.6
5339,10.4
5342,16.9
5343,13.4
5344,29.2
5347,5.6
5349,25.6
5350,25.5
5351,30.9
5356,19.6
5357,0.5
5358,18.9
5359,16.4
5362,27.0
5367,0.5
5369,13.8
5370,34.8
5371,14.0
5373,4.7
5374,24.8
5375,13.4
5376,8.3
5377,29.7
5378,31.3
5379,25.5
5382,5.8
5383,24.1
5389,21.4
5390,-15.0
5391,27.7
5394,27.7
5397,20.9
5400,16.4
5402,39.1
5404,26.4
5405,4.9
5407,16.1
5408,9.8
5412,5.9
5413,23.6
5416,6.2
5417,27.7
5419,21.9
5420,33.8
5421,31.8
5424,4.5
5425,18.5
5426,9.9
5427,29.1
5429,22.0
5434,27.8
5436,5.6
5438,19.8
5440,23.1
5442,24.9
5444,21.6
5445,20.6
5446,3.0
5447,9.0
5449,7.7
5454,8.8
5456,25.8
5457,15.9
5463,33.9
5468,27.9
5469,-12.4
5470,28.0
5473,11.2
5475,6.8
5480,26.9
5481,41.6
5483,32.6
5484,20.6
5488,29.5
5489,13.5
5490,12.1
5492,23.6
5496,16.6
5498,13.1
5501,4.9
5504,23.6
5505,26.3
5507,22.3
5508,25.3
5509,24.6
5511,34.1
5514,6.7
5515,27.9
5516,8.2
5517,33.7
5520,13.4
5522,34.7
5523,22.6
5524,4.6
5525,12.8
5526,8.2
5527,28.0
5532,22.9
5535,17.0
5536,0.5
5537,4.8
5539,15.8
5540,9.6
5541,23.1
5542,29.4
5546,17.6
5547,0.5
5548,4.1
5549,12.0
5551,22.8
5552,9.0
5555,35.0
5556,11.2
5557,26.2
5559,32.3
5560,27.0
5563,12.6
5564,28.4
5565,29.2
5566,25.6
5567,28.3
5568,-12.4
5571,25.5
5573,29.5
5575,6.3
5579,26.5
5580,41.6
5582,7.5
5583,18.6
5586,30.7
5588,4.2
5592,23.7
5593,23.6
5595,33.6
5597,12.4
5598,10.9
5599,7.5
5602,31.4
5604,21.0
5609,20.4
5613,30.8
5614,27.5
5615,3.0
5617,32.6
5619,7.2
5621,24.2
5622,11.8
5624,27.9
5625,5.6
5628,32.6
5631,24.4
5632,31.9
5633,24.3
5636,10.8
5638,6.9
5639,4.0
5640,33.1
5641,28.0
5643,7.5
5644,5.7
5646,22.6
5647,-9.8
5648,8.8
5649,23.6
5650,5.3
5658,31.3
5659,46.8
5662,10.3
5663,19.9
5664,20.7
5665,20.0
5667,31.8
5669,33.8
5670,18.5
5672,6.0
5675,8.9
5676,8.7
5679,9.1
5680,33.3
5682,31.3
5684,21.1
5687,24.2
5688,27.9
5689,29.8
5690,30.1
5692,14.1
5693,15.9
5694,33.3
5695,24.5
5699,4.6
5700,8.6
5701,19.7
5702,22.0
5703,14.5
5704,8.2
5706,21.5
5707,23.9
5709,18.5
5712,12.5
5714,6.3
5715,3.0
5716,20.7
5718,17.1
5719,22.4
5720,7.5
5721,22.6
5723,31.7
5724,30.6
5726,3.0
5732,9.3
5733,18.6
5734,16.1
5736,21.0
5737,4.5
5738,5.0
5739,8.1
5744,4.5
5745,23.4
5747,-12.4
5749,18.1
5752,23.7
5753,28.9
5754,34.8
5755,17.1
5757,24.8
5759,31.4
5760,39.1
5762,12.7
5763,10.8
5771,23.6
5773,28.9
5774,15.8
5775,24.2
5777,23.9
5779,14.4
5780,20.2
5781,29.5
5783,18.5
5784,19.0
5785,4.2
5788,9.5
5789,26.8
5792,13.2
5793,24.5
5794,5.6
5795,24.4
5799,13.2
5801,24.4
5803,15.6
5805,5.6
5808,16.6
5809,4.6
5813,6.8
5815,3.0
5816,32.7
5818,33.7
5819,18.2
5821,11.7
5823,9.7
5825,0.5
5827,32.2
5828,21.7
5829,16.6
5831,29.3
5833,25.8
5835,31.3
5836,11.7
5839,15.7
5843,27.6
5845,4.0
5847,-15.0
5848,32.5
5852,13.1
5853,15.6
5856,8.1
5857,27.7
5859,25.4
5860,36.5
5862,5.3
5864,15.0
5865,25.7
5867,17.2
5868,19.5
5870,6.5
5871,23.6
5875,20.5
5878,17.6
5879,15.4
5882,18.5
5885,33.2
5886,25.1
5888,34.1
5889,31.1
5890,29.6
5892,12.4
5894,3.0
5898,31.2
5899,19.8
5902,8.6
5903,14.9
5904,3.0
5905,26.2
5906,18.0
5907,19.5
5911,20.1
5913,12.6
5914,15.9
5916,26.1
5917,16.7
5919,35.0
5920,33.8
5921,11.2
5923,5.2
5926,-9.8
5928,16.5
5932,18.4
5934,28.0
5935,34.1
5937,16.6
5938,46.8
5939,22.1
5943,8.0
5945,22.0
5948,21.6
5949,18.5
5951,19.0
5955,32.3
5957,31.5
5959,32.1
5960,28.8
5965,8.2
5966,5.6
5967,12.0
5968,22.7
5969,16.0
5970,9.1
5971,15.9
5978,16.7
5979,23.2
5983,4.3
5984,8.2
5990,16.9
5991,6.3
5994,0.5
5998,18.1
5999,32.9
6000,22.1
6003,9.5
6004,0.5
6009,31.7
6010,15.7
6011,34.5
6012,32.2
6013,33.4
6014,26.2
6015,24.4
6017,8.8
6020,32.4
6024,22.7
6026,-9.8
6028,33.5
6029,21.0
6033,10.7
6035,27.3
6036,26.8
6037,41.6
6039,30.8
6042,16.4
6045,20.0
6046,26.0
6049,23.6
6050,18.0
6052,9.8
6055,32.4
6056,17.4
6058,13.3
6059,11.7
6060,20.3
6061,26.2
6062,5.5
6063,33.4
6065,29.0
6066,31.8
6067,29.2
6068,7.0
6069,10.2
6072,13.3
6074,20.4
6082,9.9
6083,5.6
6085,27.7
6087,6.6
6088,34.7
6090,16.5
6093,10.8
6094,4.9
6096,31.8
6097,13.0
6098,5.5
6100,34.3
6105,-9.8
6107,25.7
6108,32.8
6109,8.6
6111,23.1
6112,27.2
6114,6.1
6116,28.6
6117,46.8
6118,27.0
6119,24.5
6121,30.4
6122,31.0
6124,26.7
6125,21.5
6126,10.7
6128,18.5
6130,7.7
6131,10.3
6132,29.2
6133,19.4
6134,8.7
6135,23.7
6136,20.9
6137,8.1
6139,31.3
6140,22.3
6142,20.7
6145,24.0
6147,29.8
6149,15.9
6151,15.9
6153,9.0
6154,28.4
6158,33.1
6159,8.2
6162,8.2
6163,32.2
6164,14.2
6169,34.1
6172,3.0
6173,24.1
6175,5.7
6179,9.7
6180,14.4
6183,3.0
6184,11.2
6185,21.7
6187,19.0
6189,17.2
6190,22.9
6194,21.0
6195,28.8
6196,23.3
6198,12.1
6199,32.1
6205,-9.8
6209,16.4
6210,32.4
6214,21.6
6215,34.3
6216,44.2
6217,28.1
6221,32.6
6222,34.3
6224,5.1
6227,21.0
6232,34.6
6235,15.5
6236,20.6
6238,31.3
6239,28.8
6241,6.6
6243,24.4
6245,11.6
6246,33.0
6247,17.9
6251,13.3
6253,16.7
6256,7.1
6258,20.3
6261,21.7
6262,5.6
6265,34.3
6266,8.7
6268,27.7
6269,32.4
6270,23.9
6273,3.0
6276,27.9
6279,30.3
6282,4.2
6283,0.5
6286,11.7
6287,33.1
6290,19.2
6291,7.7
6292,9.1
6293,28.8
6297,11.0
6298,6.2
6299,10.0
6302,24.5
6304,-15.0
6308,13.8
6317,16.5
6318,36.5
6323,4.4
6325,19.4
6326,19.4
6328,23.9
6329,23.6
6330,6.3
6331,34.7
6332,14.8
6333,11.0
6334,6.7
6337,21.8
6339,24.6
6340,15.9
6351,5.6
6353,33.9
6354,8.5
6355,14.3
6357,23.3
6358,29.9
6359,22.5
6360,6.2
6361,10.1
6362,3.0
6363,19.0
6364,10.5
6367,5.2
6369,13.2
6372,15.9
6380,9.7
6382,13.1
6383,34.9
6384,-12.4
6385,12.5
6390,17.9
6391,21.0
6393,4.0
6396,41.6
6400,12.4
6402,17.4
6403,17.8
6404,33.7
6408,26.2
6411,16.9
6412,8.0
6415,11.0
6419,21.0
6422,34.6
6423,32.6
6424,31.4
6426,25.4
6428,18.6
6430,8.2
6431,14.0
6432,28.1
6434,22.9
6437,28.4
6438,23.5
6440,8.2
6441,34.3
6442,25.3
6444,30.5
6445,34.2
6446,6.8
6447,25.5
6448,33.8
6451,9.2
6452,0.5
6456,20.7
6457,14.8
6458,12.3
6459,15.9
6461,34.1
6462,0.5
6464,5.1
6465,29.2
6467,21.3
6468,15.0
6469,4.0
6470,14.7
6471,27.0
6472,26.2
6476,26.6
6477,29.0
6483,-12.4
6486,13.9
6492,29.9
6494,12.1
6496,41.6
6500,26.3
6501,23.2
6502,24.7
6503,11.7
6505,24.7
6506,32.6
6507,23.6
6509,5.5
6510,19.2
6511,18.7
6512,5.6
6513,4.4
6514,11.6
6515,29.7
6517,4.4
6518,13.7
6519,18.5
6524,31.7
6525,7.6
6526,12.6
6527,4.6
6528,27.6
6529,22.7
6531,5.6
6535,28.4
6536,20.9
6537,9.5
6538,28.9
6541,3.0
6544,4.7
6549,10.5
6550,15.9
6551,10.8
6553,27.8
6554,27.8
6556,26.9
6557,5.2
6558,19.9
6560,32.4
6561,20.9
6562,-9.8
6564,16.4
6565,33.4
6566,23.5
6567,25.5
6570,4.7
6574,46.8
6575,17.8
6576,20.8
6578,8.7
6581,14.0
6582,22.9
6583,14.5
6584,34.1
6585,15.8
6586,21.0
6592,25.5
6594,26.0
6596,10.4
6597,31.3
6598,10.3
6599,11.3
6600,26.3
6602,8.1
6604,5.7
6605,9.9
6608,18.5
6609,34.5
6611,13.3
6616,30.4
6618,19.6
6619,19.7
6620,8.2
6623,5.7
6625,27.8
6626,17.4
6627,5.3
6630,3.0
6631,26.3
6632,22.8
6633,19.0
6634,34.0
6636,22.5
6637,5.3
6638,25.1
6639,7.6
6640,3.0
6643,25.7
6644,6.9
6645,30.0
6649,29.5
6650,23.5
6651,21.0
6657,34.4
6658,30.8
6659,6.4
6660,10.2
6661,30.5
6662,8.5
6663,-9.8
6668,16.1
6670,7.1
6671,14.4
6672,12.5
6673,14.5
6674,46.8
6675,5.5
6676,9.1
6680,16.4
6683,9.8
6685,21.0
6690,7.7
6694,22.4
6696,28.8
6697,16.5
6700,13.2
6702,18.1
6706,25.2
6707,34.6
6708,13.3
6709,8.5
6710,13.7
6713,22.6
6714,18.6
6715,4.2
6716,18.8
6717,12.5
6719,26.0
6720,5.6
6722,13.2
6723,26.5
6726,33.7
6727,5.8
6728,20.5
6729,31.6
6730,0.5
6731,27.9
6732,32.5
6733,31.8
6736,6.5
6737,27.3
6738,13.0
6740,-2.1
6741,27.1
6743,29.5
6745,21.7
6747,26.6
6748,21.9
6749,17.1
6751,28.6
6752,44.2
6754,28.9
6758,34.9
6762,8.1
6763,-7.2
6764,16.6
6771,11.7
6773,25.8
6774,39.1
6778,21.9
6781,32.6
6784,15.3
6786,34.3
6787,23.6
6792,8.3
6795,15.9
6797,26.9
6798,18.5
6802,13.3
6804,8.0
6805,19.1
6806,21.2
6807,17.9
6809,5.6
6813,10.7
6819,5.6
6820,16.0
6821,16.4
6822,14.2
6824,29.2
6825,16.2
6826,5.3
6830,13.3
6836,16.3
6837,17.5
6838,4.3
6841,-9.8
6842,5.4
6845,26.7
6848,31.5
6850,6.7
6851,23.6
6852,12.2
6853,46.8
6856,4.2
6860,20.9
6862,7.7
6864,21.0
6865,30.6
6868,22.2
6869,22.4
6872,34.6
6873,5.8
6874,27.0
6876,28.8
6877,23.8
6879,8.4
6882,8.2
6884,22.9
6887,15.9
6892,14.5
6894,25.3
6895,27.8
6896,18.3
6897,15.5
6898,8.2
6899,18.5
6904,22.5
6905,11.2
6908,0.5
6915,7.5
6916,24.1
6918,9.8
6920,0.5
6921,16.2
6922,5.5
6925,26.2
6926,17.3
6927,8.1
6930,23.6
6932,34.0
6935,14.8
6936,29.3
6937,19.3
6941,-12.4
6942,13.2
6943,14.0
6947,29.2
6950,34.4
6951,22.3
6952,8.2
6953,41.6
6954,13.9
6957,27.2
6964,33.8
6965,23.6
6967,12.7
6969,12.8
6970,14.2
6971,19.9
6973,7.9
6975,4.5
6976,18.5
6978,21.4
6979,26.3
6980,22.5
6981,14.8
6986,14.9
6988,5.6
6989,10.6
6990,31.5
6991,30.2
6992,27.6
6993,16.3
6994,16.6
6995,30.9
6997,22.5
6998,25.3
6999,3.0
7000,8.6
7005,19.3
7008,19.3
7009,5.6
7010,13.8
7011,16.6
7012,4.4
7013,34.1
7014,16.7
7017,29.1
7019,-2.1
7020,30.1
7022,13.6
7023,17.1
7025,17.9
7026,13.2
7027,30.8
7029,8.8
7030,46.8
7032,17.1
7033,32.6
7035,4.5
7036,10.1
7037,28.8
7042,-2.1
7044,5.9
7045,19.6
7047,4.8
7048,15.6
7049,10.2
7050,4.1
7051,17.7
7052,25.1
7054,36.5
7055,23.7
7059,6.8
7065,23.6
7066,19.4
7069,6.9
7071,17.1
7072,14.8
7076,15.9
7077,17.6
7082,5.9
7084,8.0
7086,11.9
7087,6.3
7088,3.0
7091,11.6
7092,14.1
7095,17.7
7097,12.2
7098,3.0
7102,26.0
7104,34.0
7108,18.5
7110,26.7
7112,15.3
7114,7.0
7115,29.2
7116,25.5
7118,34.6
7119,18.5
7120,-9.8
7122,5.7
7126,26.4
7128,7.8
7130,32.9
7132,44.2
7133,6.5
7142,23.9
7143,21.0
7145,20.3
7146,21.8
7148,16.3
7149,33.9
7150,33.0
7151,30.3
7154,28.8
7157,16.5
7160,10.7
7161,14.2
7165,15.9
7166,31.4
7168,21.2
7170,10.0
7175,14.0
7177,5.6
7178,22.8
7179,12.2
7185,24.8
7186,18.3
7187,21.0
7188,3.0
7193,4.2
7195,25.3
7196,5.5
7198,0.5
7203,9.8
7207,11.5
7208,31.3
7209,27.1
7210,18.8
7211,18.7
7213,26.7
7214,20.8
7215,11.6
7216,4.2
7217,23.9
7219,21.5
7220,-12.4
7221,9.1
7223,22.7
7225,17.4
7226,11.5
7227,9.9
7228,29.3
7229,25.4
7230,22.7
7231,18.9
7232,41.6
7233,28.4
7236,8.1
7242,21.5
7243,23.6
7244,30.7
7245,13.0
7248,5.2
7249,30.9
7250,32.6
7252,14.0
7253,27.7
7254,29.3
7255,33.0
7256,18.5
7257,31.8
7258,18.3
7263,23.1
7264,22.4
7267,5.6
7270,9.8
7271,9.1
7274,18.7
7277,3.0
7281,11.3
7282,32.9
7286,8.9
7287,13.3
7288,26.3
7289,30.9
7291,24.2
7297,5.4
7298,11.4
7299,-12.4
7300,9.7
7301,21.8
7302,11.8
7304,34.7
7307,6.0
7308,23.1
7309,11.1
7310,28.7
7311,41.6
7313,20.0
7317,13.1
7319,10.6
7323,26.2
7324,13.2
7325,24.5
7327,22.7
7332,20.3
7333,31.6
7334,21.0
7336,4.3
7340,24.9
7341,14.3
7342,14.0
7346,8.2
7347,6.6
7348,30.1
7351,25.4
7353,7.9
7354,16.1
7356,8.2
7357,32.4
7361,17.7
7364,17.5
7366,3.0
7373,25.4
7375,23.3
7376,3.0
7377,10.3
7379,33.7
7380,7.9
7383,4.1
7384,29.8
7385,28.4
7387,34.5
7388,26.2
7390,10.6
7391,8.8
7394,28.0
7395,17.4
7396,23.4
7397,28.2
7399,-12.4
7401,32.3
7403,19.3
7404,18.5
7406,10.8
7408,33.1
7409,16.8
7411,41.6
7412,26.5
7414,25.7
7417,5.0
7418,16.4
7419,32.8
7422,26.2
7425,26.6
7426,4.9
7427,28.9
7428,4.1
7430,21.3
7432,5.6
7434,18.5
7436,15.7
7437,5.1
7439,23.0
7445,9.3
7446,8.2
7447,19.6
7448,13.4
7453,23.5
7456,5.6
7461,6.6
7462,29.5
7467,5.6
7469,23.8
7472,28.5
7473,13.2
7474,5.7
7475,31.8
7477,-2.1
7478,12.4
7480,24.9
7481,30.9
7483,18.7
7488,44.2
7490,27.5
7491,19.7
7493,17.3
7495,17.0
7496,15.5
7497,32.7
7498,30.1
7499,-2.1
7500,17.3
7501,9.0
7502,30.1
7504,11.6
7508,16.5
7510,29.0
7511,36.5
7512,24.5
7515,15.1
7523,23.6
7527,30.3
7531,29.1
7532,16.5
7534,15.9
7535,33.6
7540,12.1
7542,16.8
7543,6.2
7544,21.8
7545,0.5
7547,12.3
7548,22.4
7551,24.0
7556,3.0
7557,10.5
7562,20.2
7565,10.7
7566,21.0
7569,22.2
7570,27.9
7576,25.1
7577,-9.8
7580,27.2
7586,30.0
7588,26.0
7589,44.2
7590,30.1
7592,22.5
7593,6.4
7597,22.6
7598,25.9
7601,21.0
7606,17.2
7607,22.3
7610,23.2
7612,28.8
7613,13.8
7615,13.7
7621,30.9
7622,22.5
7623,15.9
7624,28.8
7626,10.4
7627,29.5
7628,28.0
7631,17.5
7634,5.6
7636,10.7
7638,8.1
7640,10.9
7643,22.3
7644,31.7
7646,3.0
7649,7.1
7653,7.1
7656,0.5
7657,26.3
7658,22.2
7661,33.0
7663,20.5
7664,24.2
7665,24.5
7666,26.2
7667,32.2
7668,14.2
7671,12.9
7672,32.9
7673,11.1
7674,4.5
7677,-12.4
7678,25.7
7679,9.7
7680,18.0
7682,27.0
7684,34.6
7687,31.1
7689,8.3
7690,39.1
7691,10.0
7692,22.3
7695,20.5
7697,32.4
7700,33.1
7701,23.6
7702,13.3
7704,29.6
7707,32.8
7708,9.0
7711,16.3
7712,18.3
7713,18.5
7717,19.6
7718,19.2
7719,30.3
7720,28.0
7721,20.3
7722,32.2
7723,8.0
7725,5.6
7726,18.0
7729,23.9
7730,24.1
7731,5.8
7732,24.4
7735,5.6
7736,34.1
7738,13.0
7739,16.0
7742,5.5
7743,25.6
7744,34.6
7745,13.3
7748,10.2
7749,26.4
7753,21.8
7755,15.5
7756,-9.8
7758,13.5
7759,27.2
7760,21.8
7765,20.6
7767,31.0
7768,49.3
7769,12.4
7770,4.8
7774,25.1
7775,20.0
7776,25.3
7777,23.3
7778,21.6
7780,18.5
7781,28.7
7782,10.0
7783,25.0
7784,11.5
7787,4.1
7789,23.2
7790,32.5
7791,28.8
7793,8.8
7795,16.2
7798,7.7
7799,30.0
7800,5.8
7802,15.9
7805,31.3
7808,16.9
7812,15.9
7813,8.1
7814,5.6
7817,7.1
7818,14.0
7820,31.9
7821,26.7
7823,25.2
7824,3.0
7826,16.6
7827,12.6
7828,19.5
7830,32.7
7833,33.4
7834,3.0
7838,14.0
7839,27.3
7842,15.1
7843,19.3
7844,23.6
7846,7.1
7848,33.9
7850,11.9
7852,17.4
7853,4.2
7856,5.6
7857,-15.0
7858,20.2
7861,14.5
7862,28.4
7863,16.9
7867,20.5
7869,39.1
7870,8.1
7872,25.2
7873,15.1
7876,16.9
7877,14.9
7878,14.1
7879,8.8
7880,26.2
7881,31.6
7883,30.7
7884,12.1
7886,27.9
7887,22.3
7888,18.6
7890,13.2
7891,18.5
7892,8.5
7893,30.3
7894,10.3
7898,20.4
7900,32.3
7903,5.6
7908,34.9
7910,4.5
7912,28.0
7914,5.6
7915,29.9
7917,29.4
7923,30.9
7924,5.6
7927,26.6
7929,18.0
7931,33.7
7934,0.5
7935,16.7
7936,5.4
7937,23.3
7939,29.1
7940,12.3
7945,31.3
7946,32.4
7948,19.9
7950,16.7
7951,9.4
7953,28.7
7956,-15.0
7958,14.3
7959,5.5
7960,23.0
7962,20.6
7966,4.9
7967,22.9
7968,39.1
7970,31.1
7976,27.1
7981,23.6
7982,10.6
7983,24.7
7984,4.4
7986,27.9
7987,23.8
7989,29.5
7991,18.7
7992,15.9
7994,19.0
7996,30.2
7997,29.5
7998,21.9
7999,19.1
8000,30.1
8001,14.4
8002,8.7
8003,5.6
8004,12.3
8006,10.5
8008,16.1
8010,12.4
8013,5.6
8014,4.4
8016,13.9
8018,5.3
8019,10.3
8021,27.4
8024,18.5
8027,15.7
8028,25.4
8032,13.3
8034,19.8
8035,-12.4
8036,34.5
8037,21.8
8038,19.4
8039,23.8
8042,10.9
8045,11.8
8046,4.6
8047,14.4
8048,41.6
8056,29.7
8057,27.6
8059,23.6
8060,5.4
8064,24.4
8070,17.4
8071,21.0
8072,9.2
8073,23.1
8074,12.4
8075,24.2
8077,29.1
8079,5.4
8080,11.2
8081,6.8
8082,5.6
8089,32.3
8092,5.6
8095,22.6
8096,27.6
8097,14.3
8099,12.7
8102,0.5
8103,30.1
8104,4.5
8106,9.9
8107,13.7
8109,5.3
8112,7.0
8114,0.5
8116,27.1
8117,24.6
8118,18.6
8122,20.5
8124,28.8
8125,18.3
8127,22.9
8129,33.6
8130,7.5
8131,13.6
8132,19.9
8133,17.2
8134,12.3
8135,-12.4
8136,32.2
8138,20.2
8140,8.9
8141,4.1
8144,20.2
8146,26.4
8147,41.6
8148,30.0
8149,13.9
8150,23.9
8152,31.1
8156,25.6
8159,23.6
8164,29.0
8165,12.6
8166,21.7
8167,8.9
8168,24.0
8170,21.0
8175,10.8
8176,34.1
8177,17.3
8178,26.8
8179,15.2
8180,21.0
8182,3.0
8183,26.2
8184,27.5
8185,9.1
8189,17.0
8190,18.9
8192,32.8
8193,5.6
8196,10.5
8199,30.3
8200,17.7
8202,25.7
8203,8.2
8211,15.9
8212,9.6
8213,-2.1
8216,22.3
8219,24.4
8220,23.9
8221,25.1
8222,15.5
8224,46.8
8225,34.4
8226,20.4
8230,31.7
8235,27.7
8236,0.5
8237,18.5
8238,19.5
8239,13.1
8241,8.5
8247,44.2
8248,15.8
8252,15.2
8254,14.5
8256,13.7
8257,23.3
8258,26.2
8259,22.4
8260,4.7
8263,17.0
8264,8.7
8268,8.1
8269,23.6
8271,26.5
8273,10.8
8275,18.7
8276,18.0
8279,19.6
8280,22.0
8281,8.2
8286,34.4
8288,31.4
8291,8.2
8295,11.1
8297,25.1
8301,5.6
8302,21.8
8303,5.1
8307,29.2
8308,27.7
8309,17.3
8310,29.5
8312,3.0
8314,31.1
8316,26.1
8318,23.5
8320,17.9
8321,24.8
8323,18.5
8326,21.1
8327,29.1
8330,34.5
8332,22.0
8334,-9.8
8335,25.8
8337,6.2
8338,28.5
8342,17.0
8344,13.7
8345,46.8
8346,10.3
8348,20.3
8349,34.7
8353,31.2
8355,20.9
8356,21.0
8357,23.4
8358,5.2
8359,18.0
8361,10.5
8363,19.9
8365,14.9
8367,6.0
8368,28.8
8370,19.3
8373,5.8
8375,22.0
8376,15.5
8377,34.6
8380,15.9
8381,27.6
8382,23.4
8385,9.2
8387,29.6
8389,10.5
8391,8.2
8392,12.2
8396,19.9
8397,16.7
8399,20.3
8401,0.5
8402,30.7
8403,33.7
8404,25.2
8405,16.4
8409,8.7
8410,22.4
8412,0.5
8414,25.1
8417,9.6
8421,33.0
8422,28.8
8425,28.4
8429,22.7
8431,23.6
8432,14.3
8433,-12.4
8435,6.7
8436,31.2
8437,21.0
8438,8.8
8441,21.6
8446,39.1
8455,28.5
8457,20.2
8458,23.6
8461,16.0
8462,24.3
8463,27.6
8464,19.8
8465,8.1
8467,29.1
8468,24.1
8469,18.5
8470,19.1
8471,32.4
8474,16.0
8476,27.6
8477,33.9
8480,5.6
8481,5.1
8482,7.7
8487,18.1
8488,8.1
8491,5.6
8492,18.9
8493,8.5
8494,21.2
8495,16.0
8496,22.8
8498,11.2
8499,12.5
8500,25.9
8501,10.8
8502,24.5
8503,30.3
8504,24.5
8506,22.8
8507,18.1
8509,5.4
8511,26.1
8513,-9.8
8516,5.4
8517,19.2
8518,18.3
8523,23.0
8524,46.8
8525,30.7
8526,28.3
8527,30.8
8528,34.9
8529,9.9
8534,15.0
8535,17.8
8536,21.0
8538,28.8
8539,17.7
8540,26.9
8542,27.7
8544,30.0
8547,31.3
8548,24.4
8549,31.3
8552,7.1
8554,14.2
8555,23.6
8556,25.1
8557,27.8
8558,15.9
8559,17.6
8560,32.1
8563,15.1
8567,24.0
8568,20.3
8569,8.2
8570,23.2
8571,24.9
8578,26.9
8580,20.0
8581,3.0
8584,26.0
8586,12.7
8590,5.4
8591,3.0
8592,15.4
8594,19.8
8596,10.5
8598,34.1
8600,13.7
8601,23.6
8603,13.6
8609,19.0
8610,5.6
8612,-12.4
8614,32.5
8615,7.2
8616,8.7
8620,11.0
8624,24.1
8625,41.6
8627,14.0
8630,5.5
8631,16.4
8633,34.7
8634,7.5
8635,23.5
8636,23.6
8639,16.2
8642,33.0
8643,20.5
8647,6.3
8648,21.0
8649,5.2
8650,23.8
8652,31.2
8653,18.0
8654,17.8
8655,5.7
8656,31.4
8659,5.6
8660,11.2
8662,34.2
8665,28.9
8666,23.5
8669,15.1
8670,5.6
8674,19.9
8676,12.2
8679,34.3
8680,3.0
8682,21.8
8683,13.1
8688,32.4
8689,34.7
8690,0.5
8692,29.4
8695,17.1
8699,30.5
8700,28.8
8703,33.6
8704,29.2
8706,6.1
8709,10.8
8710,8.2
8713,-15.0
8714,13.9
8715,10.8
8719,19.5
8723,24.5
8725,39.1
8726,30.9
8727,15.0
8729,33.3
8731,15.3
8732,25.9
8733,9.0
8736,21.0
8737,32.2
8738,24.8
8743,24.5
8744,11.2
8745,19.8
8747,33.8
8748,15.9
8754,28.0
8757,10.5
8758,5.2
8759,5.6
8760,21.5
8761,6.8
8763,21.3
8767,32.6
8769,3.0
8771,24.5
8778,23.9
8779,34.9
8780,18.5
8785,11.0
8787,9.4
8789,6.8
8791,30.5
8792,-9.8
8797,26.8
8798,6.1
8799,14.8
8801,26.9
8802,20.7
8803,46.8
8804,22.1
8807,28.7
8810,4.7
8811,18.5
8813,10.4
8814,21.0
8816,13.0
8817,15.9
8820,18.6
8821,11.9
8822,9.5
8823,7.8
8825,28.8
8827,27.0
8828,21.7
8830,20.9
8837,15.9
8838,24.2
8844,32.6
8846,19.1
8849,8.2
8850,27.0
8851,32.6
8854,22.9
8855,17.2
8859,0.5
8865,17.7
8866,14.4
8868,33.4
8869,0.5
8870,31.8
8871,6.4
8875,24.6
8877,16.5
8879,21.1
8880,26.2
8881,24.0
8884,33.2
8885,31.6
8886,7.1
8888,28.4
8889,13.3
8891,-12.4
8894,12.5
8896,18.9
8901,25.7
8902,5.8
8903,39.1
8904,22.3
8906,29.3
8908,10.3
8911,19.1
8914,17.9
8915,23.6
8917,4.8
8919,34.9
8922,22.3
8924,26.3
8927,18.5
8928,7.9
8929,16.6
8931,24.6
8933,34.9
8935,34.1
8937,27.9
8938,5.6
8942,4.9
8944,8.7
8945,33.8
8948,3.0
8949,23.7
8951,34.0
8953,27.2
8954,21.8
8955,24.0
8956,15.9
8957,29.4
8958,8.2
8962,7.6
8963,31.6
8966,16.9
8967,18.0
8968,7.8
8969,-2.1
8970,27.1
8975,34.7
8976,16.8
8978,33.5
8981,46.8
8984,4.0
8985,34.9
8987,27.1
8989,32.4
8990,12.6
8991,29.2
8992,0.5
8993,32.6
8994,8.2
8996,30.3
8998,8.0
8999,25.1
9003,44.2
9004,34.3
9007,12.3
9008,22.2
9014,26.2
9018,5.2
9019,31.9
9020,10.5
9022,17.6
9025,23.6
9026,17.1
9029,10.8
9033,17.1
9036,10.8
9037,15.1
9040,27.0
9041,6.9
9049,3.0
9055,30.8
9056,23.0
9057,14.1
9059,21.0
9067,23.7
9068,12.6
9070,-12.4
9071,16.5
9072,12.5
9076,4.8
9081,9.1
9082,41.6
9083,11.6
9084,30.6
9087,5.9
9088,13.4
9092,16.3
9094,23.6
9096,15.2
9097,31.3
9101,8.3
9102,29.1
9104,29.2
9105,21.0
9106,7.4
9108,15.9
9109,19.2
9110,8.0
9112,10.8
9114,21.6
9116,28.3
9117,5.6
9118,15.1
9119,32.0
9121,15.8
9122,23.0
9123,14.4
9124,22.1
9127,5.6
9130,8.9
9134,9.7
9135,25.2
9138,0.5
9139,15.6
9140,31.3
9141,29.2
9143,13.3
9144,5.4
9146,10.7
9147,30.6
9148,-2.1
9151,28.6
9152,29.2
9153,14.0
9155,34.2
9157,27.0
9159,44.2
9168,14.4
9169,6.0
9170,-7.2
9174,26.4
9175,10.5
9176,33.0
9179,34.0
9180,28.2
9183,39.1
9184,32.7
9185,11.9
9186,21.0
9187,18.9
9188,9.6
9190,32.2
9191,11.1
9192,4.0
9194,23.6
9199,18.5
9200,11.5
9201,11.2
9205,18.5
9206,11.8
9209,15.2
9216,15.7
9217,5.6
9218,26.9
9220,6.6
9221,25.3
9222,13.1
9223,29.7
9224,8.6
9225,6.9
9226,12.1
9227,5.6
9228,28.2
9229,18.2
9236,20.0
9237,15.9
9242,22.3
9246,13.8
9247,6.0
9249,-9.8
9250,31.1
9256,4.3
9257,4.4
9259,14.0
9260,11.6
9261,46.8
9266,19.4
9267,17.5
9268,6.9
9270,10.0
9271,25.6
9272,21.0
9280,28.9
9281,19.6
9282,5.9
9283,28.8
9284,26.4
9286,20.6
9287,33.9
9289,6.7
9290,10.4
9291,6.6
9294,18.5
9295,6.9
9296,6.0
9297,11.1
9299,18.9
9300,16.8
9303,23.6
9306,8.2
9307,33.3
9311,4.5
9314,28.8
9315,6.4
9317,0.5
9318,18.1
9320,5.4
9321,24.8
9327,0.5
9328,23.6
9332,13.9
9333,13.3
9334,14.3
9335,18.1
9337,26.2
9338,5.6
9339,23.9
9340,24.2
9341,4.1
9342,30.8
9347,29.5
9349,-12.4
9354,24.4
9355,11.6
9356,29.1
9357,6.2
9359,33.2
9361,41.6
9363,9.6
9367,27.0
9368,4.4
9369,5.0
9371,9.7
9372,26.2
9375,5.7
9376,33.7
9378,17.4
9380,14.4
9381,24.1
9382,33.2
9384,18.5
9385,32.2
9390,4.6
9391,14.1
9392,29.8
9396,5.6
9398,9.2
9400,27.0
9402,7.0
9403,28.4
9405,4.8
9406,5.6
9411,16.7
9413,5.1
9414,13.8
9415,11.9
9416,5.6
9417,26.9
9419,21.6
9423,4.6
9424,34.5
9426,0.5
9428,16.5
9431,31.7
9433,10.4
9434,26.9
9435,8.4
9437,33.9
9438,8.2
9439,8.2
9440,5.2
9441,34.7
9449,-15.0
9450,11.2
9452,34.3
9453,8.0
9457,24.6
9458,5.5
9459,15.7
9461,39.1
9462,24.3
9463,7.0
9465,24.6
9468,23.0
9469,5.4
9471,6.3
9473,23.6
9476,27.5
9478,11.9
9484,18.5
9485,13.5
9487,10.9
9489,7.1
9493,11.1
9494,9.4
9495,5.6
9498,9.6
9499,15.7
9502,34.2
9503,28.7
9505,3.0
9506,8.9
9508,26.7
9510,11.9
9511,29.8
9512,16.8
9513,12.8
9514,7.9
9516,13.4
9517,18.5
9519,19.5
9520,13.3
9522,28.9
9528,-12.4
9532,22.9
9533,17.3
9534,4.2
9535,12.2
9537,19.9
9540,44.2
9541,17.3
9542,12.3
9543,27.1
9545,26.6
9546,22.1
9547,15.1
9548,17.6
9551,23.6
9553,18.1
9556,24.8
9557,23.4
9559,30.9
9560,11.5
9563,21.0
9565,24.5
9567,21.1
9568,23.4
9570,9.5
9571,18.6
9572,11.2
9574,8.2
9578,16.5
9581,28.0
9584,14.4
9585,8.2
9587,9.5
9588,15.9
9589,33.8
9590,15.5
9591,14.3
9594,30.3
9595,3.0
9599,12.3
9600,27.7
9602,16.1
9606,0.5
9607,8.9
9608,28.4
9612,31.0
9615,19.8
9616,28.8
9617,23.2
9618,16.9
9619,13.3
9622,12.3
9626,28.3
9627,-12.4
9628,15.5
9629,11.7
9630,30.3
9631,25.6
9633,8.9
9635,31.2
9636,28.1
9639,41.6
9641,33.4
9644,32.6
9649,16.2
9651,26.3
9652,23.6
9656,24.7
9658,14.5
9659,21.4
9660,25.7
9663,18.5
9665,25.7
9670,16.6
9673,27.6
9674,8.2
9678,31.3
9679,21.9
9682,31.5
9683,27.2
9684,5.6
9685,8.8
9686,10.3
9688,32.2
9692,27.4
9693,16.0
9695,10.8
9698,32.6
9699,8.7
9700,7.2
9701,18.7
9703,8.9
9706,-9.8
9708,18.2
9710,24.0
9715,33.0
9716,33.5
9718,46.8
9720,27.1
9722,21.0
9723,11.0
9725,12.4
9726,33.1
9729,12.9
9730,21.0
9732,21.0
9733,19.5
9741,31.3
9742,17.3
9744,24.7
9751,4.8
9752,18.5
9753,28.3
9754,16.2
9758,20.7
9760,13.2
9763,8.2
9767,18.6
9770,23.8
9771,23.1
9774,3.0
9778,27.3
9779,27.5
9782,28.4
9783,6.4
9784,7.0
9785,0.5
9786,30.7
9787,24.9
9788,19.5
9789,7.1
9790,31.8
9791,20.0
9792,10.1
9794,18.3
9795,23.6
9800,4.9
9801,4.7
9802,29.0
9806,-12.4
9808,18.7
9809,15.8
9814,18.6
9816,9.1
9817,29.7
9818,4.1
9819,41.6
9820,7.0
9821,20.6
9822,17.1
9823,18.9
9826,21.2
9829,26.1
9830,26.2
9835,21.2
9837,8.3
9838,26.7
9839,21.8
9840,7.7
9841,21.0
9843,34.4
9844,34.4
9845,16.3
9846,10.1
9852,27.8
9853,8.2
9855,28.3
9863,17.7
9864,8.2
9867,9.7
9869,23.9
9870,30.0
9871,27.2
9872,34.7
9874,3.0
9875,23.6
9877,16.0
9878,25.8
9880,14.7
9882,16.6
9884,0.5
9885,32.4
9889,9.9
9890,7.4
9892,8.3
9894,33.9
9895,32.9
9896,30.7
9897,22.2
9898,31.9
9899,4.4
9900,16.3
9901,21.8
9902,19.7
9904,24.6
9906,-12.4
9907,34.8
9911,7.4
9913,23.9
9914,25.8
9915,15.9
9917,13.1
9918,18.3
9919,39.1
9920,23.2
9921,18.0
9923,24.8
9926,16.8
9928,31.6
9929,11.0
9930,23.6
9932,14.2
9935,22.6
9936,5.0
9937,33.6
9942,15.9
9943,7.3
9944,14.8
9945,28.0
9948,4.9
9949,16.4
9951,26.3
9953,3.0
9956,21.6
9957,12.4
9958,22.1
9960,27.6
9962,6.5
9963,3.0
9965,11.0
9968,12.4
9969,12.4
9970,18.8
9972,24.6
9973,15.9
9976,29.8
9979,24.4
9980,10.4
9981,25.3
9982,20.5
9986,-12.4
9988,7.1
9989,5.4
9990,21.5
9992,28.7
9993,12.2
9995,26.6
9996,33.6
9998,41.6
10003,30.8
10005,19.3
10008,10.7
10009,23.6
10013,6.3
10014,11.8
10015,20.9
10018,7.2
10020,4.3
10021,13.3
10022,12.8
10024,24.3
10025,22.3
10029,24.4
10033,27.9
10034,33.9
10037,5.5
10038,13.7
10040,31.9
10043,9.0
10044,32.3
10045,8.7
10047,-2.1
10048,21.4
10049,31.3
10050,30.4
10051,32.7
10054,16.5
10059,31.3
10061,20.9
10062,5.0
10063,33.9
10064,31.2
10068,22.7
10069,11.6
10070,8.5
10072,10.8
10073,33.6
10075,27.9
10076,12.0
10079,31.8
10080,33.0
10081,13.4
10082,12.1
10083,8.8
10084,-4.7
10085,5.9
10086,13.9
10089,6.3
10090,5.9
10091,18.8
10092,34.5
10093,7.0
10095,30.0
10096,44.2
10097,32.8
10098,7.1
10103,32.5
10104,15.8
10106,6.5
10107,28.4
10109,26.2
10111,7.1
10113,25.8
10114,6.7
10116,19.4
10119,10.3
10120,8.2
10121,25.9
10122,10.8
10125,22.1
10126,13.6
10127,30.3
10128,4.5
10134,36.5
10135,8.2
10137,32.1
10139,24.7
10141,4.1
10144,34.1
10145,20.1
10146,5.6
10148,28.9
10149,6.7
10152,6.9
10154,8.1
10155,20.5
10156,30.4
10157,13.3
10158,36.5
10159,8.2
10160,19.0
10166,25.6
10170,15.9
10183,0.5
10184,28.0
10185,22.8
10186,34.1
10187,18.8
10190,19.8
10191,19.2
10192,13.1
10193,17.3
10194,44.2
10195,22.8
10196,11.4
10197,28.4
10199,6.5
10200,32.5
10202,19.5
10203,23.1
10204,7.4
10206,34.6
10207,18.5
10209,7.8
10212,21.9
10213,12.9
10214,11.7
10215,8.7
10217,14.8
10218,31.2
10219,23.6
10220,6.4
10222,11.4
10223,32.5
10226,10.8
10228,5.6
10229,22.5
10231,3.0
10234,17.4
10235,24.5
10241,16.0
10243,16.6
10244,-4.7
10245,11.9
10246,14.7
10248,9.2
10249,14.0
10250,27.5
10252,19.4
10254,13.7
10256,44.2
10260,6.3
10261,8.3
10262,15.3
10263,19.1
10264,29.1
10266,33.0
10268,23.6
10270,18.5
10271,20.8
10276,25.8
10280,13.3
10281,12.6
10282,20.3
10283,32.2
10284,17.2
10286,22.7
10287,19.7
10288,34.4
10291,22.5
10292,34.4
10293,36.5
10294,4.9
10299,7.3
10300,34.7
10301,25.7
10303,14.6
10304,18.0
10305,5.6
10306,33.1
10311,32.4
10314,10.5
10315,15.3
10317,36.5
10318,19.7
10321,31.5
10323,30.4
10324,9.7
10325,23.8
10326,6.7
10327,8.8
10329,16.5
10330,15.9
10333,27.6
10335,15.2
10338,15.4
10342,0.5
10343,12.0
10344,31.1
10346,18.8
10347,24.6
10350,6.6
10353,46.8
10354,30.6
10355,24.3
10356,12.5
10357,30.0
10360,4.2
10364,29.4
10365,15.9
10366,19.8
10370,33.6
10371,17.1
10373,9.6
10375,5.3
10377,25.7
10379,23.6
10380,17.8
10383,29.0
10385,31.2
10386,4.1
10390,23.8
10391,3.0
10392,29.2
10394,16.7
10397,22.6
10399,24.8
10400,34.6
10402,-4.7
10405,28.9
10406,7.1
10408,8.2
10409,8.4
10411,18.6
10415,46.8
10416,9.2
10417,19.5
10423,7.5
10424,14.9
10425,28.6
10426,9.0
10427,26.2
10428,11.1
10430,21.1
10431,9.6
10439,13.3
10440,21.2
10441,12.8
10445,20.6
10447,18.6
10448,30.9
10450,20.3
10451,15.1
10452,36.5
10455,22.8
10456,22.5
10457,5.0
10462,12.5
10464,5.2
10465,5.6
10468,27.3
10475,12.3
10476,36.5
10479,22.8
10481,7.6
10484,15.6
10488,15.9
10489,28.2
10490,25.8
10492,33.0
10493,14.8
10494,4.9
10496,30.4
10497,28.0
10499,10.0
10501,3.0
10502,34.0
10503,33.3
10506,32.8
10509,9.1
10510,23.9
10512,22.4
10513,44.2
10514,32.6
10517,4.2
10518,32.8
10519,13.0
10522,23.8
10524,33.0
10525,15.9
10527,15.1
10529,19.2
10530,34.4
10531,22.6
10532,18.4
10533,11.4
10537,26.2
10538,8.0
10541,20.8
10546,30.4
10547,4.7
10549,13.3
10550,5.6
10554,23.3
10555,32.2
10557,26.1
10558,14.2
10560,13.3
10561,-2.1
10562,23.0
10563,31.0
10565,7.9
10566,27.6
10567,27.6
10569,7.0
10573,46.8
10575,24.3
10577,12.9
10584,21.2
10586,28.8
10587,23.6
10588,12.9
10590,31.4
10593,8.0
10599,13.3
10601,5.1
10604,6.6
10606,19.8
10609,21.2
10611,33.9
10612,22.9
10614,4.7
10615,10.9
10619,14.7
10620,34.4
10621,21.3
10622,26.0
10623,4.8
10624,0.5
10625,34.9
10627,18.4
10629,22.1
10631,7.6
10634,8.5
10635,39.1
10636,10.9
10638,24.5
10639,26.5
10640,26.3
10643,11.8
10644,32.4
10645,11.4
10647,26.3
10648,15.9
10649,22.5
10650,4.4
10652,29.2
10653,21.1
10657,33.7
10658,32.4
10660,0.5
10662,28.3
10663,22.4
10664,13.5
10666,27.8
10667,20.9
10668,12.6
10669,21.9
10672,41.6
10673,26.8
10675,29.9
10676,22.7
10678,17.3
10680,23.8
10684,13.3
10685,25.4
10686,15.1
10688,8.8
10689,22.8
10690,20.8
10691,4.5
10692,6.1
10694,5.5
10696,26.2
10698,14.3
10706,18.3
10708,11.2
10709,27.4
10710,5.6
10711,15.5
10712,31.7
10713,6.6
10717,13.9
10721,-4.7
10727,17.8
10728,6.9
10730,10.9
10731,24.6
10732,6.1
10733,46.8
10734,22.2
10735,21.1
10736,8.3
10737,10.8
10739,4.6
10741,12.7
10744,18.8
10745,26.2
10748,16.4
10750,23.0
10751,23.8
10752,30.3
10753,13.2
10754,13.3
10755,28.0
10756,19.5
10757,32.2
10758,13.3
10759,14.0
10760,31.2
10761,4.3
10765,12.7
10770,33.9
10772,9.7
10774,27.1
10776,31.9
10777,9.4
10778,13.3
10782,4.1
10783,-2.1
10786,5.0
10788,6.5
10792,26.0
10796,31.3
10798,13.5
10801,26.3
10802,14.6
10803,33.2
10804,16.3
10805,7.3
10808,10.8
10812,20.6
10813,13.8
10814,12.7
10815,33.7
10817,32.8
10820,-4.7
10822,15.9
10824,29.9
10825,21.5
10826,15.7
10832,44.2
10833,9.0
10834,9.1
10835,18.0
10836,11.4
10838,27.6
10840,10.9
10842,8.5
10843,28.6
10844,24.9
10846,26.2
10849,13.0
10850,9.6
10851,10.9
10852,6.6
10853,23.8
10856,32.6
10857,8.3
10858,10.8
10862,16.0
10864,5.4
10867,4.6
10869,29.7
10870,39.1
10872,22.8
10875,16.2
10876,32.0
10877,25.4
10881,22.6
10882,17.7
10883,8.2
10884,7.1
10887,13.2
10889,8.9
10890,8.3
10892,8.1
10894,33.9
10899,13.4
10904,16.6
10906,15.9
10907,20.8
10908,27.8
10909,32.1
10911,15.1
10918,11.5
10919,-2.1
10921,9.5
10923,16.6
10926,22.7
10927,18.7
10929,34.7
10930,4.2
10931,10.9
10932,46.8
10935,7.9
10936,15.0
10940,5.0
10943,10.7
10944,23.6
10948,30.0
10952,22.2
10953,19.5
10954,13.4
10956,15.9
10959,28.2
10962,29.5
10965,4.2
10969,26.2
10970,8.7
10976,17.0
10977,24.8
10978,5.5
10979,21.9
10980,23.9
10981,10.6
10982,-12.4
10983,23.2
10986,19.2
10994,19.1
10995,26.2
10996,22.7
10997,4.1
10999,24.0
11000,9.7
11001,22.0
11002,14.6
11003,7.1
11004,8.5
11007,30.1
11008,5.6
11009,15.7
11010,26.3
11011,12.7
11013,19.3
11018,19.9
11019,-2.1
11022,15.4
11024,34.1
11025,13.6
11026,26.5
11028,22.0
11029,23.3
11031,46.8
11032,31.9
11033,11.0
11035,12.9
11036,28.2
11040,26.5
11043,34.3
11044,26.2
11046,8.2
11049,11.3
11053,33.8
11056,24.2
11057,13.3
11058,18.5
11064,32.4
11069,33.9
11071,20.6
11072,6.3
11073,14.3
11074,13.0
11075,26.8
11076,30.0
11077,17.8
11081,-2.1
11084,28.3
11087,7.7
11088,13.2
11091,27.5
11093,10.1
11094,28.8
11096,23.0
11097,32.3
11099,32.5
11103,24.8
11104,34.2
11105,17.3
11107,8.2
11108,17.0
11110,17.3
11112,5.8
11113,9.5
11114,18.6
11118,0.5
11120,31.8
11121,17.0
11125,7.9
11127,28.3
11129,44.2
11131,9.0
11133,6.7
11134,25.7
11136,14.0
11140,21.0
11141,16.6
11142,13.3
11145,6.3
11146,26.4
11148,5.9
11149,8.1
11150,6.1
11151,7.5
11154,26.2
11155,18.8
11161,21.0
11164,32.7
11165,4.7
11166,5.6
11167,23.5
11168,18.8
11170,17.3
11174,14.4
11178,8.2
11179,-2.1
11181,10.2
11183,19.1
11185,20.7
11191,46.8
11192,22.2
11193,6.2
11194,8.3
11197,29.4
11199,20.0
11200,12.8
11203,26.2
11204,19.9
11206,16.8
11207,32.3
11208,6.6
11210,12.9
11211,8.7
11215,15.9
11216,13.7
11217,4.7
11218,4.9
11219,27.1
11225,18.1
11226,14.4
11227,32.2
11228,31.3
11229,21.7
11230,20.7
11231,32.1
11232,8.6
11236,11.5
11240,25.6
11241,-4.7
11244,10.4
11248,12.0
11253,31.3
11254,14.7
11258,24.4
11259,19.6
11264,15.8
11266,10.8
11269,23.0
11270,7.9
11274,18.8
11275,33.9
11277,26.1
11278,-4.7
11280,7.2
11284,24.4
11287,10.3
11288,25.2
11290,46.8
11293,16.8
11294,21.7
11296,31.4
11300,14.6
11301,10.5
11302,23.6
11303,20.2
11304,5.3
11305,7.0
11306,12.5
11307,31.0
11308,29.3
11310,28.9
11311,9.1
11314,17.3
11315,13.1
11316,13.3
11317,17.4
11322,30.8
11327,31.2
11328,39.1
11330,31.0
11333,15.4
11334,29.0
11335,19.1
11336,34.8
11337,13.8
11338,14.7
11339,33.8
11340,5.6
11342,32.2
11343,19.2
11344,29.9
11346,24.9
11350,13.7
11351,27.3
11352,33.9
11353,23.0
11356,34.3
11357,12.1
11361,17.7
11364,18.5
11367,13.1
11369,17.2
11372,9.1
11374,29.2
11377,0.5
11378,21.9
11382,26.0
11384,29.7
11386,4.7
11388,44.2
11391,16.6
11392,8.3
11394,4.2
11395,16.8
11398,8.0
11399,21.6
11400,14.1
11401,15.9
11402,20.5
11403,14.3
11405,7.4
11406,29.4
11407,5.7
11410,17.1
11413,26.2
11421,7.9
11422,17.9
11425,3.0
11432,17.0
11433,19.3
11434,22.5
11436,11.2
11437,-4.7
11441,13.9
11445,4.7
11448,17.7
11450,46.8
11452,28.1
11454,12.0
11455,31.2
11458,30.9
11461,6.3
11462,26.2
11463,21.8
11464,13.3
11465,30.9
11466,24.4
11469,31.9
11470,9.8
11472,28.4
11473,13.1
11474,13.3
11475,19.3
11476,21.1
11477,30.6
11479,33.0
11481,25.7
11482,26.6
11483,4.2
11485,32.2
11487,36.5
11495,34.1
11497,26.4
11499,5.6
11501,18.4
11502,31.2
11505,15.6
11508,30.8
11509,13.0
11511,39.1
11512,24.3
11514,18.2
11515,10.3
11520,24.1
11521,20.4
11523,6.9
11524,15.9
11531,18.0
11532,25.1
11536,0.5
11538,33.4
11539,34.5
11540,8.5
11541,11.5
11542,17.8
11544,26.7
11546,8.8
11547,44.2
11549,5.7
11550,21.6
11552,25.8
11554,13.8
11558,26.3
11559,18.5
11561,16.2
11562,16.4
11564,26.6
11570,4.4
11572,23.6
11573,10.1
11575,23.5
11578,24.8
11580,30.3
11584,28.3
11585,5.6
11587,29.0
11588,17.2
11589,4.1
11590,6.1
11591,8.3
11596,-4.7
11597,28.6
11600,8.7
11601,29.5
11602,30.1
11607,31.6
11608,26.3
11609,46.8
11611,20.1
11612,19.6
11614,12.3
11617,16.0
11619,11.8
11620,33.9
11621,23.6
11622,20.8
11623,10.3
11624,27.3
11627,17.1
11632,18.0
11633,13.3
11634,21.9
11635,4.7
11639,28.5
11646,36.5
11650,9.2
11652,34.3
11654,20.7
11655,16.6
11656,26.4
11659,0.5
11661,23.8
11662,25.6
11663,15.8
11664,30.4
11666,23.8
11668,11.8
11670,36.5
11671,32.4
11673,31.6
11676,31.2
11682,18.5
11683,22.6
11685,4.7
11687,34.5
11690,32.4
11691,12.7
11694,26.2
11695,0.5
11697,5.6
11700,30.9
11703,8.5
11706,23.3
11707,44.2
11708,27.7
11711,6.9
11713,21.5
11715,10.7
11716,5.5
11717,24.2
11718,31.6
11719,15.9
11721,4.0
11722,7.4
11725,14.3
11727,16.1
11728,18.7
11729,28.4
11730,20.4
11731,26.2
11732,25.4
11733,26.0
11736,5.9
11738,31.2
11744,5.6
11745,10.7
11746,20.2
11753,19.8
11754,23.8
11755,-4.7
11756,26.6
11757,5.1
11758,11.9
11759,6.1
11760,12.7
11761,12.4
11763,6.0
11764,16.6
11765,31.7
11767,44.2
11773,14.5
11774,25.3
11775,29.8
11780,9.9
11781,26.2
11782,23.7
11785,7.2
11790,20.0
11791,10.7
11792,13.6
11793,10.8
11795,13.9
11800,19.7
11805,33.9
11807,10.1
11809,23.4
11810,4.4
11814,32.6
11815,20.0
11817,0.5
11818,13.9
11819,12.7
11820,7.4
11821,30.1
11824,18.0
11826,12.1
11827,6.8
11828,32.7
11829,39.1
11831,5.2
11833,31.5
11834,28.5
11836,24.4
11837,16.5
11838,22.8
11841,25.5
11842,15.9
11845,24.0
11846,10.3
11851,25.8
11852,17.5
11853,7.3
11854,0.5
11857,20.0
11859,16.1
11862,34.4
11865,20.0
11866,41.6
11867,17.1
11870,6.6
11871,21.7
11873,29.6
11876,15.9
11877,15.0
11878,13.3
11879,26.8
11882,20.2
11883,24.6
11885,9.0
11886,6.0
11887,31.0
11888,26.3
11890,26.2
11893,30.8
11894,14.3
11897,34.4
11899,10.4
11900,9.9
11902,5.6
11903,15.1
11904,20.7
11906,22.2
11907,17.1
11908,17.6
11915,-2.1
11916,8.6
11917,15.5
11920,15.3
11921,11.4
11922,11.7
11924,24.3
11925,27.9
11927,46.8
11937,19.8
11938,12.8
11939,23.6
11940,16.0
11944,24.4
11946,6.9
11947,32.1
11948,25.7
11951,14.4
11952,15.9
11957,5.3
11958,25.1
11959,20.7
11961,12.3
11963,17.2
11964,33.9
11972,21.0
11974,22.7
11975,10.4
11977,-2.1
11978,29.3
11983,28.1
11984,4.2
11988,28.4
11989,14.6
11990,31.3
11995,8.9
11996,29.6
11997,9.5
12002,10.8
12003,27.4
12004,17.3
12005,21.4
12006,24.1
12008,11.9
12011,6.2
12012,15.5
12013,26.9
12014,-4.7
12015,5.9
12017,13.9
12019,31.1
12021,15.5
12022,13.3
12023,7.3
12024,11.4
12026,44.2
12028,28.9
12031,18.5
12033,9.9
12036,32.4
12038,20.6
12039,21.5
12040,23.6
12042,18.6
12043,31.5
12044,30.1
12047,23.8
12048,27.7
12049,10.9
12051,30.8
12052,13.3
12053,30.2
12055,33.5
12057,28.6
12058,18.5
12062,32.5
12063,33.5
12064,39.1
12065,7.6
12070,31.2
12071,19.5
12072,8.3
12073,8.0
12074,26.7
12075,24.2
12076,32.6
12077,8.2
12078,10.2
12084,28.2
12086,5.9
12087,17.7
12088,36.5
12092,6.6
12096,6.3
12099,29.6
12100,15.9
12101,26.2
12102,12.6
12104,10.0
12106,24.9
12107,19.2
12108,31.5
12109,33.9
12113,-2.1
12114,14.8
12116,24.4
12117,30.3
12119,25.4
12120,17.9
12121,18.6
12124,27.5
12126,46.8
12129,29.9
12130,28.3
12131,32.0
12135,33.0
12137,25.0
12138,26.2
12142,22.1
12144,18.7
12146,15.7
12147,26.0
12149,17.5
12150,15.9
12153,27.9
12160,16.5
12162,18.1
12163,26.2
12166,13.2
12168,22.8
12169,26.4
12172,15.7
12175,30.5
12176,-12.4
12178,10.0
12179,28.1
12182,4.5
12186,23.1
12187,15.4
12189,26.2
12190,9.0
12193,29.5
12198,12.7
12199,8.3
12201,5.6
12204,24.9
12205,25.1
12212,15.3
12213,-2.1
12215,28.2
12217,23.3
12219,33.7
12222,9.7
12223,30.0
12225,46.8
12226,22.0
12229,27.6
12230,11.6
12234,23.3
12235,4.4
12237,26.2
12243,4.7
12244,25.5
12248,18.8
12251,15.9
12252,11.5
12257,5.6
12258,7.5
12259,19.3
12263,33.9
12264,23.9
12265,7.5
12266,32.1
12268,14.2
12269,27.1
12271,7.0
12274,6.1
12275,-2.1
12276,26.0
12277,32.2
12278,17.0
12280,5.0
12284,5.0
12286,16.4
12288,31.3
12289,21.4
12290,26.3
12292,24.8
12294,30.2
12295,32.2
12297,22.5
12298,30.8
12300,10.8
12302,32.5
12308,10.3
12313,-4.7
12314,13.9
12316,19.7
12320,26.1
12323,15.1
12324,31.7
12325,46.8
12326,22.6
12331,7.3
12332,21.7
12333,18.6
12336,6.8
12338,23.6
12339,11.8
12344,11.5
12349,31.8
12350,13.3
12351,19.7
12355,16.8
12358,23.6
12360,30.4
12361,25.0
12362,41.6
12363,11.4
12365,8.8
12366,31.2
12367,6.8
12368,34.8
12370,19.3
12376,8.2
12377,8.3
12381,24.4
12382,17.1
12386,8.5
12387,36.5
12388,20.1
12392,13.6
12393,20.7
12395,12.2
12396,31.6
12399,15.9
12402,32.0
12405,34.6
12406,19.4
12407,8.0
12411,0.5
12412,4.1
12413,29.1
12415,25.4
12416,26.8
12417,24.4
12418,4.6
12419,16.1
12423,44.2
12425,5.5
12432,13.4
12433,27.1
12435,15.9
12436,28.5
12440,13.9
12441,22.3
12442,21.3
12444,14.5
12446,10.5
12448,23.6
12453,8.4
12455,31.2
12461,3.0
12462,16.4
12463,24.2
12466,26.6
12468,31.3
12469,25.6
12470,10.1
12472,-4.7
12473,11.3
12475,31.9
12478,30.2
12481,32.2
12483,15.8
12484,46.8
12485,26.1
12486,29.8
12487,10.2
12488,4.4
12490,32.1
12493,5.8
12495,5.2
12496,23.6
12498,5.6
12500,29.4
12502,22.2
12504,6.0
12505,17.7
12507,7.5
12509,4.1
12510,13.3
12511,33.2
12514,30.5
12517,20.5
12518,5.4
12520,20.3
12522,39.1
12523,34.5
12525,11.1
12527,25.7
12528,12.6
12530,14.4
12534,5.6
12535,31.3
12536,22.6
12538,9.6
12540,25.2
12543,23.3
12544,11.1
12545,32.6
12546,36.5
12552,25.9
12555,23.6
12558,15.9
12559,16.9
12560,6.7
12562,27.9
12564,16.2
12566,20.5
12567,23.9
12568,19.9
12570,29.1
12571,0.5
12572,8.4
12577,8.3
12578,23.7
12579,20.1
12582,46.8
12584,14.8
12585,34.5
12588,27.6
12590,13.4
12592,18.2
12593,25.6
12594,11.9
12595,15.9
12597,18.2
12598,4.1
12599,14.8
12600,26.3
12601,6.3
12602,29.7
12605,34.9
12606,5.1
12607,26.2
12608,14.8
12609,21.0
12611,10.6
12615,28.2
12616,11.6
12617,30.7
12619,5.6
12620,17.4
12627,32.8
12628,22.7
12629,23.2
12630,13.0
12631,-2.1
12632,8.3
12637,21.3
12638,34.6
12641,27.2
12643,8.3
12644,46.8
12647,17.1
12648,11.2
12650,35.0
12652,26.7
12654,15.0
12656,26.2
12657,4.9
12659,26.6
12662,16.6
12668,13.3
12669,19.1
12670,18.8
12671,30.9
12672,19.8
12673,18.8
12675,31.0
12677,7.9
12681,36.5
12682,20.5
12684,29.1
12686,10.7
12691,32.7
12693,3.0
12694,17.4
12699,20.3
12701,24.6
12705,36.5
12707,15.1
12708,6.7
12709,24.3
12714,31.3
12715,28.3
12718,15.9
12722,9.0
12724,32.7
12725,9.3
12727,8.9
12729,17.2
12730,0.5
12731,17.5
12736,20.0
12737,25.4
12738,4.3
12739,25.7
12741,44.2
12742,10.0
12743,24.0
12744,6.7
12745,16.3
12748,29.3
12749,9.2
12750,21.1
12751,23.9
12753,18.5
12758,25.0
12760,26.1
12763,34.0
12764,4.0
12765,13.0
12766,23.6
12767,22.1
12768,29.1
12769,21.5
12770,7.3
12771,14.0
12775,23.3
12776,18.9
12778,8.7
12779,3.0
12780,14.0
12785,22.7
12786,19.4
12789,13.2
12790,-4.7
12793,21.0
12797,9.8
12798,21.3
12799,33.7
12800,20.5
12801,13.8
12803,46.8
12805,32.7
12806,32.5
12807,33.2
12810,13.0
12811,28.0
12813,7.4
12814,33.4
12815,23.6
12816,16.0
12817,19.0
12823,22.1
12826,21.7
12827,15.9
12828,33.6
12829,8.3
12835,33.7
12837,30.8
12838,30.9
12839,14.9
12840,36.5
12841,6.9
12844,20.5
12845,6.5
12846,7.5
12850,34.3
12851,20.3
12852,5.2
12853,3.0
12854,31.1
12857,15.2
12858,5.4
12861,26.3
12862,9.7
12863,12.4
12864,36.5
12866,25.8
12868,9.6
12870,33.4
12871,21.4
12872,31.6
12874,14.8
12875,18.4
12876,18.5
12877,5.5
12878,11.2
12879,4.5
12880,8.4
12881,10.1
12884,7.8
12887,26.7
12889,0.5
12891,8.6
12893,23.6
12896,6.0
12898,19.7
12900,44.2
12902,29.9
12903,5.1
12904,12.5
12905,21.7
12907,34.0
12908,16.4
12913,15.9
12914,23.9
12917,14.7
12918,34.9
12919,9.0
12922,30.4
12925,26.2
12930,16.7
12932,10.5
12933,7.7
12934,21.4
12935,15.9
12936,31.5
12938,3.0
12940,4.4
12941,33.5
12942,23.8
12943,4.6
12944,8.2
12945,12.1
12947,9.4
12948,15.9
12949,-4.7
12951,26.0
12953,8.3
12961,46.8
12966,25.8
12967,21.8
12968,15.3
12971,18.6
12973,28.6
12974,23.7
12975,26.2
12976,34.8
12977,25.6
12978,14.1
12980,31.4
12981,25.4
12984,29.0
12985,27.6
12987,13.3
12989,13.5
12990,33.3
12991,33.8
12992,15.4
12993,16.6
12995,28.1
12996,19.4
12998,5.5
12999,36.5
13001,15.8
13003,32.0
13006,28.5
13008,15.2
13009,13.4
13011,0.5
13014,33.1
13021,10.8
13022,14.2
13023,39.1
13027,6.0
13029,15.8
13033,17.3
13035,18.5
13037,21.0
13039,20.6
13045,29.5
13046,15.0
13048,3.0
13049,31.1
13053,10.2
13055,27.2
13056,12.3
13060,41.6
13062,10.1
13063,13.2
13064,27.0
13066,11.1
13068,33.1
13071,14.9
13072,13.3
13074,21.0
13076,17.3
13077,9.0
13079,16.9
13080,19.3
13082,17.5
13083,16.1
13084,26.2
13089,13.3
13090,13.7
13096,5.6
13097,8.8
13102,30.7
13103,29.2
13104,18.7
13106,20.3
13108,4.1
13109,-2.1
13111,19.7
13115,22.9
13118,11.6
13119,28.0
13120,24.2
13121,46.8
13122,27.9
13127,22.9
13130,10.8
13133,28.8
13134,29.7
13135,11.8
13136,11.6
13138,34.2
13139,17.3
13140,22.5
13143,14.5
13145,20.6
13146,13.3
13147,15.0
13150,27.7
13153,28.5
13156,13.9
13158,36.5
13159,5.8
13162,34.8
13164,5.0
13166,9.4
13167,12.3
13168,18.4
13169,26.7
13171,-2.1
13173,4.3
13175,18.2
13180,12.7
13184,33.9
13185,32.5
13188,27.5
13189,27.5
13191,21.6
13194,25.6
13196,10.8
13198,17.9
13201,32.4
13208,-4.7
13212,19.2
13215,8.4
13220,46.8
13225,34.1
13226,13.8
13227,23.7
13229,32.6
13231,24.7
13232,34.1
13233,23.6
13234,4.1
13237,21.4
13238,4.9
13239,17.1
13243,14.4
13244,34.8
13246,10.8
13247,7.4
13251,5.2
13252,8.1
13254,25.6
13256,4.2
13258,39.1
13260,34.8
13264,4.7
13265,9.7
13266,21.4
13267,13.7
13269,14.6
13271,5.6
13274,31.4
13276,8.3
13278,18.4
13280,12.2
13282,36.5
13285,25.2
13287,24.8
13288,11.2
13289,10.9
13291,19.2
13292,30.6
13293,27.5
13294,18.5
13297,9.8
13298,28.7
13300,26.5
13301,7.1
13302,8.4
13303,24.4
13306,21.9
13307,0.5
13311,12.5
13312,30.9
13313,16.4
13314,9.7
13315,18.3
13319,46.8
13324,12.2
13327,21.1
13330,30.1
13331,15.9
13339,15.8
13340,9.7
13341,24.7
13343,23.6
13344,7.4
13346,5.6
13348,15.3
13350,10.9
13352,10.0
13354,26.2
13355,14.9
13356,3.0
13358,13.1
13359,33.6
13362,12.0
13364,27.5
13367,-4.7
13371,34.3
13372,28.7
13377,29.5
13378,23.4
13379,22.1
13380,44.2
13381,14.0
13387,6.4
13388,24.6
13390,32.6
13392,26.2
13394,14.7
13399,15.1
13402,27.4
13404,10.8
13405,13.3
13407,18.1
13410,5.0
13415,27.7
13416,8.2
13417,39.1
13418,9.8
13419,30.2
13420,16.9
13421,10.2
13423,17.7
13426,15.9
13429,5.6
13430,34.9
13431,8.4
13432,6.7
13433,13.8
13434,18.7
13435,33.9
13438,26.3
13440,27.6
13441,27.2
13442,36.5
13443,27.6
13445,12.0
13446,7.1
13450,27.4
13451,4.9
13454,15.9
13455,12.0
13456,7.7
13459,34.2
13461,24.3
13466,0.5
13470,16.2
13472,4.4
13474,23.3
13475,5.8
13477,44.2
13482,21.7
13486,6.6
13487,29.8
13489,11.5
13490,18.5
13495,28.5
13496,11.3
13497,23.2
13499,14.4
13500,6.3
13501,27.1
13502,26.2
13504,33.2
13508,13.6
13513,5.0
13514,14.2
13515,5.6
13516,23.1
13517,22.3
13518,8.4
13519,29.4
13524,32.3
13525,25.8
13527,-4.7
13531,17.0
13533,11.1
13535,28.9
13536,33.4
13539,46.8
13543,33.5
13544,10.7
13545,28.2
13549,29.7
13550,20.5
13551,23.6
13553,21.2
13554,33.7
13556,13.6
13560,14.7
13563,13.3
13566,33.0
13567,24.4
13573,24.2
13575,5.8
13577,36.5
13578,15.4
13580,29.3
13581,16.4
13582,15.4
13584,30.6
13585,8.5
13588,9.4
13589,5.6
13592,26.4
13594,7.3
13595,11.9
13597,18.6
13600,36.5
13611,27.8
13613,15.9
13615,17.7
13616,18.5
13617,22.8
13619,6.0
13622,26.3
13623,13.1
13625,-2.1
13626,4.8
13630,12.8
13631,12.0
13635,31.8
13636,20.2
13638,49.3
13643,25.9
13646,24.1
13647,11.7
13648,31.4
13649,15.5
13650,26.2
13652,32.4
13653,6.6
13655,5.2
13656,24.2
13658,8.9
13659,34.4
13660,19.0
13662,7.7
13663,18.5
13664,23.9
13667,13.9
13668,16.6
13671,25.2
13672,7.6
13673,24.9
13674,18.5
13675,23.6
13676,7.9
13677,32.0
13682,33.8
13687,-17.5
13689,29.1
13690,32.2
13691,10.6
13692,9.0
13693,7.5
13696,17.2
13700,25.2
13701,28.8
13702,6.6
13703,5.7
13705,19.6
13707,11.1
13708,23.2
13712,8.9
13714,5.6
13716,22.4
13718,11.6
13719,21.6
13723,6.3
13725,-2.1
13726,14.0
13727,10.8
13731,18.3
13732,28.1
13733,7.5
13737,46.8
13738,4.8
13740,8.2
13741,19.9
13744,18.0
13745,4.0
13750,26.2
13751,23.9
13752,14.7
13762,13.3
13768,22.4
13769,23.2
13771,26.6
13772,15.6
13774,10.1
13775,31.3
13776,11.9
13777,13.9
13778,4.3
13779,34.6
13781,4.2
13782,28.1
13783,15.7
13788,-7.2
13793,29.0
13794,11.6
13796,19.3
13797,23.0
13798,31.5
13799,27.1
13800,33.9
13805,13.6
13806,14.7
13807,5.7
13812,10.8
13815,22.4
13817,19.6
13818,18.0
13819,16.3
13821,11.4
13822,28.2
13823,12.4
13824,22.7
13825,-4.7
13826,26.3
13833,10.4
13834,16.7
13836,25.4
13837,25.1
13838,46.8
13839,13.2
13841,6.1
13843,26.0
13844,8.5
13846,28.5
13847,20.8
13849,7.0
13850,23.6
13852,6.3
13853,11.6
13856,21.0
13858,8.1
13862,13.3
13863,9.3
13864,5.5
13865,27.3
13869,7.1
13870,11.6
13871,15.6
13873,7.1
13874,13.6
13875,36.5
13878,8.6
13880,7.1
13881,20.6
13882,21.0
13884,15.2
13886,11.3
13887,3.0
13888,5.0
13889,21.1
13893,10.1
13894,26.7
13898,39.1
13900,31.3
13902,24.8
13903,20.2
13905,26.4
13906,23.8
13909,10.9
13911,30.1
13912,15.9
13915,11.4
13918,21.5
13919,24.7
13921,6.7
13922,33.1
13924,0.5
13927,18.8
13930,11.6
13933,15.8
13934,4.4
13935,44.2
13936,27.2
13937,22.4
13940,13.5
13942,19.1
13943,18.9
13944,5.4
13947,15.9
13949,4.7
13952,8.0
13955,12.0
13956,26.2
13958,28.2
13959,34.0
13960,26.2
13963,32.3
13967,18.2
13970,17.4
13971,12.3
13972,15.3
13973,5.6
13974,28.6
13976,28.6
13978,24.8
13979,30.0
13982,13.9
13984,-4.7
13985,9.6
13986,18.2
13988,20.4
13990,6.5
13991,7.4
13993,28.2
13996,27.4
13997,46.8
13998,23.3
13999,28.8
14000,13.4
14004,12.0
14009,26.2
14010,15.3
14011,22.8
14013,8.4
14014,16.3
14017,14.5
14020,29.5
14021,13.3
14024,22.6
14025,18.1
14027,19.5
14028,11.3
14029,17.8
14032,25.2
14033,36.5
14035,7.6
14038,27.4
14045,19.5
14047,3.0
14048,16.9
14049,8.4
14053,17.2
14057,22.1
14058,39.1
14059,16.4
14060,8.2
14065,16.5
14066,29.7
14069,32.6
14070,15.9
14073,17.7
14074,10.8
14076,4.8
14078,15.3
14079,10.4
14081,7.1
14082,20.9
14083,3.0
14084,30.4
14086,18.8
14089,12.9
14094,44.2
14095,34.8
14096,9.1
14097,8.3
14098,25.3
14101,32.8
14102,27.6
14103,12.9
14107,15.9
14109,15.8
14110,6.1
14111,13.2
14112,16.1
14113,15.8
14114,19.3
14115,10.3
14119,26.2
14120,10.8
14121,13.2
14123,25.1
14126,6.2
14129,18.2
14132,5.6
14135,28.2
14136,25.2
14137,9.4
14141,24.8
14142,15.6
14143,-2.1
14148,13.2
14151,11.0
14152,22.6
14155,46.8
14157,34.7
14161,26.9
14163,10.4
14166,32.6
14168,26.2
14169,12.1
14170,4.8
14171,11.8
14180,13.7
14181,13.3
14182,20.7
14183,21.5
14184,22.4
14187,32.0
14189,32.7
14190,10.7
14193,36.5
14199,21.1
14200,28.2
14204,11.2
14205,3.0
14206,4.9
14207,20.8
14212,19.1
14214,22.7
14215,23.9
14216,16.4
14217,39.1
14219,11.0
14220,30.1
14224,27.7
14225,21.9
14227,9.6
14228,33.5
14229,18.5
14232,28.2
14234,25.9
14235,33.4
14239,7.5
14240,24.0
14241,19.0
14242,3.0
14243,5.8
14248,14.2
14251,10.9
14252,6.0
14254,41.6
14256,32.1
14261,5.5
14262,27.0
14263,25.3
14265,21.9
14266,13.3
14271,6.5
14272,18.0
14273,8.0
14275,8.9
14276,18.9
14277,20.1
14278,26.2
14279,4.6
14280,20.6
14281,17.8
14283,22.1
14284,34.7
14286,16.4
14290,3.0
14292,5.7
14293,29.6
14295,14.4
14296,17.9
14297,23.0
14299,28.5
14300,26.5
14301,24.3
14302,29.8
14303,-2.1
14304,18.8
14308,12.8
14310,23.0
14311,23.4
14312,5.8
14313,9.0
14314,30.9
14315,49.3
14317,7.3
14318,7.9
14319,12.7
14320,30.5
14321,28.5
14322,34.6
14323,15.0
14327,23.6
14330,26.9
14333,21.1
14336,20.6
14337,7.2
14338,33.2
14339,34.0
14340,13.3
14341,17.4
14343,19.3
14345,23.6
14347,25.2
14349,33.7
14350,25.9
14351,16.6
14352,33.9
14353,11.5
14354,34.8
14355,10.2
14356,6.9
14357,22.5
14360,34.4
14361,15.4
14364,0.5
14366,14.9
14368,29.4
14372,27.1
14374,27.4
14376,39.1
14377,7.2
14380,22.5
14381,22.9
14384,10.8
14385,32.3
14386,19.7
14387,6.7
14388,30.0
14389,18.5
14394,10.5
14396,30.4
14397,26.0
14398,24.1
14400,31.5
14401,0.5
14402,5.7
14404,20.4
14408,33.4
14411,25.6
14412,41.6
14415,7.5
14418,10.4
14420,29.5
14421,19.5
14423,17.2
14424,19.3
14425,13.3
14426,9.8
14427,25.2
14428,9.3
14431,16.1
14432,28.9
14436,25.4
14438,26.2
14439,17.1
14441,7.7
14442,30.0
14445,6.4
14450,5.6
14455,23.0
14457,20.3
14460,12.3
14461,-2.1
14464,5.1
14465,30.3
14466,13.6
14470,22.7
14474,46.8
14476,5.7
14480,18.8
14485,9.1
14486,26.2
14489,15.1
14494,13.2
14496,20.0
14497,14.3
14498,15.9
14499,11.0
14500,25.5
14501,32.0
14510,29.4
14511,11.3
14512,31.3
14513,22.5
14517,22.2
14518,27.5
14519,7.8
14522,18.9
14523,12.6
14524,-4.7
14525,26.7
14527,22.7
14529,8.8
14531,32.2
14532,28.1
14533,31.7
14536,33.9
14537,7.3
14539,29.1
14540,6.2
14541,22.6
14543,26.9
14548,8.2
14550,14.0
14554,31.3
14556,6.1
14557,26.9
14559,34.4
14560,3.0
14562,33.4
14564,11.9
14565,19.3
14568,17.1
14572,41.6
14573,9.6
14577,33.0
14579,29.4
14584,10.8
14585,34.7
14588,25.9
14589,16.6
14590,5.2
14591,25.6
14595,16.3
14597,28.8
14598,21.7
14599,12.1
14600,12.0
14602,29.6
14603,26.4
14609,5.6
14610,21.2
14612,13.9
14613,6.9
14614,16.1
14615,28.1
14620,-2.1
14622,22.7
14628,4.3
14629,27.9
14630,18.6
14631,16.4
14632,46.8
14633,24.5
14639,14.5
14641,33.7
14643,5.4
14644,22.2
14645,25.6
14646,26.2
14647,13.5
14649,31.3
14653,22.0
14655,18.4
14657,23.5
14658,13.3
14661,32.4
14662,5.0
14664,34.5
14666,22.9
14667,30.9
14670,31.3
14671,25.8
14673,18.3
14675,23.7
14676,31.7
14677,14.2
14678,33.3
14679,32.7
14681,17.0
14682,19.8
14683,-7.2
14687,6.1
14688,10.4
14691,33.9
14693,18.6
14695,31.3
14697,33.0
14701,18.0
14703,18.8
14706,8.2
14707,18.8
14708,10.8
14710,11.0
14712,13.1
14721,-2.1
14723,4.3
14724,32.5
14726,13.5
14729,24.2
14733,46.8
14737,24.0
14741,26.8
14743,33.3
14745,26.2
14746,6.9
14747,23.1
14750,31.3
14753,30.0
14754,11.1
14757,13.3
14760,29.1
14761,16.8
14762,32.3
14764,9.7
14765,11.3
14767,13.7
14770,32.0
14771,39.1
14773,6.9
14774,20.9
14777,24.1
14779,13.6
14780,12.3
14782,13.2
14783,5.6
14784,34.1
14788,31.1
14789,12.4
14790,24.8
14791,24.7
14793,8.9
14794,36.5
14796,12.7
14797,29.1
14802,27.4
14805,4.2
14807,15.9
14809,22.6
14813,17.6
14814,14.9
14817,31.7
14819,0.5
14820,6.8
14823,24.7
14825,20.0
14826,24.4
14827,34.4
14828,16.9
14830,44.2
14832,12.5
14834,23.0
14836,21.9
14837,7.2
14843,18.5
14845,19.3
14847,10.0
14848,20.7
14855,25.9
14856,26.2
14858,31.8
14859,18.5
14860,13.9
14863,29.8
14864,8.2
14865,30.0
14866,34.7
14868,3.0
14870,25.2
14871,23.3
14872,19.8
14873,29.6
14875,16.0
14878,6.4
14879,-4.7
14881,32.0
14883,28.2
14884,4.8
14885,10.2
14886,15.9
14889,23.1
14890,9.6
14892,44.2
14893,21.9
14895,34.7
14898,5.1
14899,33.7
14901,11.5
14905,23.6
14907,15.8
14908,15.8
14909,22.1
14914,33.0
14917,13.3
14920,17.1
14923,9.4
14924,9.2
14926,14.8
14929,36.5
14931,11.2
14935,15.9
14936,21.6
14940,6.9
14942,3.0
14944,6.0
14953,39.1
14954,29.5
14962,28.3
14963,9.9
14964,25.0
14965,18.5
14971,29.9
14974,28.6
14975,28.3
14977,13.5
14979,0.5
14985,12.7
14987,23.6
14989,8.6
14990,44.2
14993,4.1
14996,17.2
14998,9.5
14999,27.1
15002,15.9
15004,12.4
15005,9.9
15006,29.0
15009,24.9
15012,20.7
15014,23.6
15015,11.1
15018,11.4
15021,10.5
15022,15.5
15023,33.1
15027,5.6
15028,26.9
15030,15.8
15033,32.0
15034,11.9
15035,5.2
15039,-2.1
15040,17.5
15044,29.1
15045,29.2
15048,9.4
15049,11.7
15051,46.8
15054,21.4
15055,15.9
15056,23.2
15059,8.1
15062,14.2
15063,4.6
15064,26.2
15066,12.3
15068,14.5
15070,29.8
15072,21.9
15074,14.8
15076,15.9
15077,34.2
15078,30.4
15080,23.6
15081,33.0
15086,29.0
15088,36.5
15091,34.6
15092,22.9
15093,31.3
15094,32.6
15095,30.1
15101,0.5
15102,30.8
15103,11.7
15104,17.2
15106,32.0
15107,31.1
15109,17.1
15112,14.1
15113,39.1
15116,14.0
15118,7.0
15119,30.7
15121,16.6
15125,18.5
15127,5.4
15128,18.2
15130,28.9
15132,20.2
15133,4.1
15134,27.6
15135,28.7
15137,3.0
15138,14.5
15139,8.2
15140,19.8
15141,18.1
15142,33.0
15143,34.6
15144,26.9
15146,22.9
15149,44.2
15150,16.5
15152,15.7
15155,33.8
15158,17.3
15160,22.3
15161,13.3
15162,23.0
15165,12.0
15169,4.5
15173,25.7
15174,26.2
15176,18.2
15177,30.5
15179,23.9
15182,31.0
15186,5.6
15187,30.9
15188,17.4
15190,5.6
15194,30.2
15195,23.3
15196,32.2
15198,-4.7
15204,6.5
15206,33.9
15207,10.7
15208,20.2
15210,44.2
15213,28.7
15214,33.5
15216,32.9
15217,17.9
15218,14.4
15220,18.9
15221,15.1
15222,26.2
15223,17.4
15224,14.1
15225,24.2
15229,6.4
15230,26.6
15232,17.1
15235,4.6
15236,13.3
15238,7.0
15239,19.2
15240,13.1
15244,21.5
15246,26.4
15248,33.9
15253,9.6
15255,12.8
15257,10.4
15259,33.9
15260,0.5
15265,22.9
15266,23.8
15271,39.1
15273,17.5
15276,20.0
15277,4.6
15282,34.3
15284,18.5
15285,32.7
15286,14.1
15287,32.2
15292,24.0
15296,3.0
15300,28.2
15303,16.7
15306,25.9
15307,28.5
15308,41.6
15313,11.1
15314,14.6
15315,5.4
15316,29.6
15318,27.2
15319,12.2
15321,13.3
15323,9.5
15325,21.4
15327,6.2
15328,29.8
15330,20.6
15332,9.2
15333,28.8
15334,14.3
15336,17.8
15339,13.3
15342,5.0
15343,8.0
15345,5.6
15353,5.7
15355,30.7
15356,-2.1
15357,30.6
15358,20.7
15359,31.0
15365,35.0
15366,17.3
15367,9.3
15368,15.7
15370,46.8
15371,29.8
15373,19.9
15375,28.5
15376,23.5
15378,27.6
15379,11.7
15380,24.1
15381,21.8
15382,26.2
15383,27.5
15384,16.6
15385,21.3
15388,5.6
15389,15.9
15391,14.0
15393,14.9
15394,13.3
15397,4.6
15399,30.0
15406,4.7
15407,33.9
15408,6.5
15410,27.7
15412,17.6
15415,21.9
15416,22.6
15418,6.6
15419,-2.1
15425,29.0
15430,24.1
15431,33.9
15432,4.0
15433,13.1
15434,32.5
15436,30.6
15443,8.6
15444,10.8
15445,30.9
15446,26.0
15447,18.2
15450,20.2
15453,27.5
15454,5.5
15455,10.7
15457,-4.7
15459,14.2
15460,8.5
15461,33.3
15467,27.2
15469,44.2
15477,10.7
15478,13.4
15479,12.7
15481,26.2
15486,23.5
15487,12.0
15489,19.8
15491,22.5
15492,27.2
15494,13.3
15495,26.3
15496,11.2
15497,20.7
15498,24.9
15507,39.1
15510,8.7
15513,10.9
15514,17.6
15516,17.1
15519,5.6
15520,18.8
15524,30.1
15526,32.0
15528,17.9
15531,39.1
15537,10.8
15538,7.8
15542,17.8
15543,15.9
15544,12.7
15546,15.1
15547,18.3
15548,17.3
15550,24.9
15555,0.5
15556,31.6
15557,16.0
15559,33.2
15562,17.8
15564,13.7
15567,46.8
15573,5.3
15574,23.0
15575,32.2
15578,32.4
15579,22.8
15580,18.5
15583,29.2
15585,12.2
15587,19.4
15588,28.0
15589,15.6
15590,12.5
15592,26.2
15600,12.9
15601,11.4
15604,3.0
15605,12.8
15606,19.6
15607,14.4
15608,22.2
15609,30.3
15610,17.8
15611,18.3
15612,11.9
15614,29.6
15616,-4.7
15619,4.9
15620,27.4
15621,11.4
15625,16.1
15628,46.8
15632,17.0
15633,18.7
15636,4.8
15638,31.0
15639,4.7
15641,26.2
15642,30.9
15644,17.1
15646,15.0
15647,13.6
15648,17.8
15650,10.2
15652,6.7
15653,13.3
15655,13.8
15656,18.6
15657,10.4
15660,28.1
15663,5.8
15664,22.2
15666,39.1
15669,28.5
15674,23.9
15677,5.4
15678,3.0
15679,30.4
15681,26.9
15686,28.7
15687,15.6
15688,15.1
15689,39.1
15690,19.7
15691,11.5
15692,13.0
15693,12.2
15698,11.6
15699,34.5
15701,28.8
15702,24.3
15703,15.9
15704,17.1
15705,11.6
15709,33.6
15711,32.3
15714,30.8
15715,0.5
15716,8.0
15717,16.8
15718,34.5
15719,23.6
15721,32.4
15722,24.8
15724,4.4
15725,33.7
15726,46.8
15727,12.1
15728,4.9
15729,35.0
15731,26.8
15732,6.2
15733,26.8
15736,29.3
15737,22.1
15738,18.5
15740,27.4
15741,15.2
15750,17.1
15751,23.6
15753,6.4
15754,25.4
15755,22.5
15757,21.6
15759,26.8
15760,29.8
15761,34.8
15763,3.0
15764,6.7
15768,7.2
15770,31.5
15772,19.6
15774,27.2
15775,-4.7
15778,17.9
15779,32.8
15781,16.5
15785,6.4
15788,46.8
15792,26.6
15793,18.6
15794,17.2
15799,6.9
15800,26.2
15801,23.9
15809,24.1
15812,13.3
15817,19.8
15818,24.7
15819,12.7
15820,18.3
15822,22.1
15824,36.5
15826,16.4
15827,24.2
15828,28.2
15829,15.9
15830,31.4
15833,26.0
15836,4.5
15838,3.0
15839,15.6
15840,8.1
15841,16.5
15842,34.3
15843,22.2
15844,4.5
15847,23.9
15849,39.1
15850,6.1
15852,26.3
15854,25.7
15858,25.4
15859,4.1
15861,15.9
15863,9.6
15866,25.8
15871,19.4
15874,3.0
15875,32.2
15876,30.5
15877,13.8
15878,30.0
15881,25.1
15882,23.3
15884,17.1
15885,44.2
15888,32.4
15893,6.1
15895,5.7
15896,6.1
15897,15.9
15899,31.1
15900,20.5
15901,15.7
15903,13.6
15910,26.2
15911,13.5
15913,30.9
15914,10.6
15916,22.3
15920,6.8
15922,18.1
15923,5.6
15927,27.0
15928,14.5
15929,12.1
15930,13.3
15933,13.4
15934,-2.1
15935,8.0
15937,9.8
15945,22.8
15946,46.8
15948,12.7
15951,4.5
15952,31.8
15955,31.1
15958,9.2
15959,23.6
15961,26.4
15963,28.3
15964,18.9
15965,11.0
15970,15.1
15972,13.3
15974,6.5
15976,32.4
15977,25.1
15978,27.4
15984,36.5
15985,16.6
15994,13.6
15995,30.9
15996,3.0
16000,19.4
16007,13.4
16008,39.1
16009,10.3
16011,34.1
16014,32.5
16018,6.4
16019,24.9
16020,18.5
16029,4.3
16031,15.0
16033,3.0
16034,15.6
16035,12.3
16038,33.3
16039,17.0
16040,13.9
16045,44.2
16047,29.3
16055,14.8
16057,13.3
16061,33.5
16062,33.0
16065,28.1
16068,15.3
16069,26.2
16071,9.2
16073,7.7
16074,21.1
16076,14.2
16081,5.6
16082,31.2
16083,29.0
16085,5.8
16087,21.9
16089,13.4
16092,31.5
16093,-2.1
16095,28.6
16097,6.4
16101,9.3
16102,34.9
16103,34.4
16104,14.2
16105,29.0
16106,46.8
16110,30.0
16111,34.2
16118,23.6
16120,7.4
16121,18.3
16122,27.5
16124,9.5
16125,20.7
16126,33.2
16129,7.0
16131,13.3
16133,10.8
16134,20.5
16137,33.6
16139,6.8
16143,36.5
16145,31.6
16146,27.7
16147,26.7
16148,34.8
16149,33.8
16154,6.0
16155,0.5
16164,12.0
16166,15.9
16167,36.5
16175,12.0
16176,25.8
16180,18.5
16184,34.4
16186,9.4
16189,32.4
16190,7.2
16192,3.0
16193,22.9
16194,15.5
16195,18.4
16196,30.1
16198,34.3
16200,30.3
16202,30.1
16203,44.2
16204,26.8
16207,7.1
16208,6.0
16210,13.7
16212,18.6
16213,10.0
16216,10.8
16217,6.8
16219,6.7
16220,26.4
16221,6.7
16222,11.7
16227,14.3
16228,26.2
16233,23.9
16237,15.2
16241,5.6
16242,30.3
16243,33.5
16244,13.9
16245,5.2
16246,5.8
16248,13.5
16249,4.3
16250,17.7
16251,6.7
16252,0.5
16253,26.1
16255,31.7
16258,23.1
16259,31.5
16263,16.6
16264,46.8
16265,23.0
16269,13.4
16271,27.8
16273,13.9
16276,21.0
16277,16.6
16279,30.0
16280,17.4
16282,27.2
16284,13.5
16285,34.6
16286,13.4
16288,21.0
16289,28.3
16296,27.0
16298,9.7
16300,22.3
16301,8.4
16302,3.0
16307,33.1
16309,30.6
16310,22.5
16311,14.6
16313,-7.2
16316,5.7
16317,13.5
16324,6.5
16325,44.2
16330,23.2
16331,26.7
16332,7.2
16333,17.0
16336,7.2
16337,23.6
16339,25.5
16341,15.9
16343,23.9
16344,25.4
16347,6.9
16350,10.8
16351,5.8
16353,27.4
16355,30.0
16356,25.8
16357,20.3
16360,8.1
16361,24.6
16362,39.1
16363,8.2
16366,26.9
16367,16.5
16370,8.4
16371,29.6
16375,13.3
16377,32.7
16381,8.7
16383,6.6
16386,29.1
16387,15.0
16388,28.8
16389,23.8
16392,9.3
16394,28.2
16397,29.9
16399,21.6
16400,5.6
16402,15.8
16403,8.5
16406,20.4
16408,23.6
16411,0.5
16413,19.4
16414,28.8
16415,26.0
16419,27.1
16422,46.8
16423,4.3
16424,21.6
16425,8.3
16426,28.8
16427,23.6
16428,33.0
16429,23.6
16431,19.3
16434,27.6
16436,21.0
16438,21.1
16439,18.1
16440,25.8
16441,8.9
16445,4.9
16447,33.8
16448,21.0
16450,24.5
16451,32.3
16458,12.3
16459,14.5
16460,3.0
16461,19.3
16462,8.0
16463,29.0
16468,21.3
16470,33.1
16471,8.5
16472,-4.7
16476,14.8
16478,13.2
16479,9.8
16480,26.2
16481,5.4
16483,25.0
16484,44.2
16485,19.9
16486,32.7
16492,23.9
16493,25.9
16494,8.6
16496,23.6
16498,23.6
16499,20.0
16500,4.5
16502,15.8
16503,12.9
16505,4.9
16506,28.5
16509,10.8
16511,29.8
16515,12.1
16516,17.0
16517,15.1
16520,13.3
16521,18.8
16522,41.6
16524,18.0
16525,28.9
16528,25.5
16529,22.8
16533,14.6
16534,10.8
16536,26.3
16539,4.7
16540,31.0
16541,23.7
16546,28.8
16547,34.1
16549,22.1
16551,14.2
16554,16.2
16556,25.3
16559,5.6
16568,10.3
16571,-2.1
16574,6.9
16575,16.1
16577,23.4
16579,15.0
16581,29.0
16583,46.8
16584,10.8
16585,21.3
16588,20.5
16595,23.6
16599,32.7
16602,17.7
16605,31.3
16607,14.8
16608,18.5
16609,25.6
16611,32.3
16612,23.0
16614,29.7
16616,6.3
16617,16.1
16618,33.7
16620,28.8
16621,16.9
16622,8.0
16624,32.8
16625,30.1
16627,4.7
16628,6.7
16632,7.0
16633,-9.8
16635,26.5
16636,10.0
16637,15.8
16639,32.6
16640,18.9
16644,22.3
16645,24.6
16646,33.9
16647,17.9
16648,31.3
16650,27.4
16651,23.1
16652,10.6
16658,10.8
16661,4.5
16665,14.2
16666,27.6
16668,26.6
16670,-4.7
16672,30.6
16673,20.2
16674,28.7
16676,27.7
16677,26.6
16680,21.4
16681,33.5
16683,46.8
16688,21.7
16689,13.5
16694,22.3
16695,23.6
16698,27.4
16699,12.0
16702,29.1
16703,26.7
16704,33.7
16705,11.2
16706,17.7
16708,13.3
16710,21.4
16713,22.2
16715,31.4
16716,33.7
16717,16.7
16718,10.7
16720,36.5
16721,5.7
16723,21.5
16728,26.6
16729,7.9
16732,26.6
16733,5.6
16735,19.3
16738,29.0
16739,11.9
16744,36.5
16751,19.8
16755,20.0
16756,18.5
16760,29.3
16761,20.4
16762,27.9
16764,29.9
16769,14.3
16770,0.5
16771,25.4
16773,8.6
16777,31.6
16781,44.2
16782,15.4
16783,24.6
16786,24.5
16787,24.6
16788,31.1
16789,8.9
16791,32.1
16793,15.9
16801,26.2
16802,31.9
16805,26.2
16807,27.6
16811,7.4
16813,10.8
16816,11.6
16817,10.5
16818,5.6
16820,17.5
16823,19.8
16825,14.6
16828,20.6
16829,-4.7
16832,13.2
16836,33.2
16837,17.1
16839,32.1
16842,46.8
16843,23.8
16846,19.6
16851,22.9
16852,16.4
16855,26.2
16856,14.0
16857,21.1
16858,18.9
16859,12.3
16860,12.7
16861,14.1
16862,21.8
16863,14.4
16867,13.3
16868,6.5
16872,15.1
16873,10.2
16879,31.3
16880,33.1
16881,14.0
16882,14.7
16883,28.4
16884,14.2
16886,23.5
16887,32.6
16888,25.7
16889,19.1
16891,-2.1
16893,20.7
16894,18.2
16905,31.3
16906,12.6
16907,34.0
16910,6.0
16916,23.7
16917,8.2
16918,34.1
16919,16.0
16921,31.5
16925,32.8
16927,17.3
16928,3.0
16930,14.0
16939,7.7
16940,44.2
16941,27.2
16942,7.7
16944,23.1
16945,19.3
16947,12.0
16950,10.9
16951,23.0
16952,13.3
16954,15.0
16955,13.9
16957,27.8
16958,28.1
16961,17.5
16963,31.5
16964,23.0
16965,26.2
16966,17.7
16970,22.6
16971,11.4
16972,26.4
16974,32.3
16976,5.5
16977,3.0
16979,33.6
16980,14.9
16983,19.6
16987,9.7
16989,-2.1
16994,29.9
16996,16.3
16997,9.9
16998,5.2
16999,27.5
17000,14.1
17001,46.8
17004,18.7
17008,23.8
17011,9.3
17013,23.6
17014,12.7
17017,7.9
17021,12.7
17022,20.8
17023,27.1
17025,13.5
17026,13.3
17030,24.5
17035,9.2
17039,33.9
17043,15.8
17045,21.2
17049,21.6
17051,0.5
17053,20.1
17054,11.9
17056,24.3
17058,5.5
17060,6.6
17061,23.6
17062,36.5
17063,19.7
17074,5.0
17075,18.5
17078,4.3
17080,10.3
17082,32.2
17083,21.2
17084,6.2
17086,30.5
17087,0.5
17091,31.0
17092,17.6
17096,11.5
17097,28.6
17098,20.3
17099,41.6
17102,16.4
17103,27.2
17105,7.2
17106,14.7
17112,13.3
17113,12.1
17114,16.9
17118,4.5
17121,11.6
17123,8.8
17124,26.2
17125,16.2
17126,23.1
17128,17.6
17129,30.5
17130,32.9
17131,29.6
17132,16.5
17135,25.7
17136,5.6
17140,19.4
17141,5.5
17142,14.3
17143,10.4
17144,32.7
17145,30.4
17147,-2.1
17150,13.3
17156,21.8
17159,7.3
17160,46.8
17163,25.4
17166,26.0
17170,29.5
17171,14.8
17173,26.2
17175,17.8
17176,23.4
17177,25.2
17178,28.9
17179,15.3
17180,5.3
17181,34.4
17182,31.3
17184,33.4
17185,13.3
17186,34.1
17188,26.4
17190,30.3
17191,24.1
17193,24.3
17195,21.3
17197,30.7
17198,31.3
17201,24.9
17202,18.1
17206,31.1
17207,21.0
17209,6.8
17210,-4.7
17215,8.9
17219,9.7
17222,31.3
17227,12.1
17231,33.2
17232,15.5
17234,18.8
17235,10.8
17239,19.9
17240,12.9
17245,16.3
17248,-4.7
17251,17.8
17252,22.9
17253,29.8
17254,29.8
17255,29.7
17256,6.5
17257,28.2
17260,49.3
17263,21.4
17264,21.7
17266,7.1
17268,19.7
17269,18.1
17272,23.6
17273,15.6
17277,6.1
17278,21.8
17280,25.3
17281,13.3
17284,28.6
17285,10.8
17289,22.7
17290,9.1
17291,10.4
17293,7.1
17295,32.4
17298,39.1
17299,23.2
17304,9.5
17306,27.5
17307,27.6
17309,20.0
17310,5.6
17312,24.0
17313,24.6
17315,18.8
17316,17.6
17321,36.5
17322,17.5
17325,15.8
17326,13.9
17327,31.8
17329,18.9
17331,15.2
17332,13.4
17334,15.9
17336,23.0
17340,24.1
17346,0.5
17353,26.0
17354,23.8
17356,13.5
17357,44.2
17358,34.5
17360,17.4
17364,18.6
17366,19.3
17367,14.4
17368,16.7
17371,15.9
17374,21.5
17376,33.5
17379,26.5
17383,26.2
17386,29.7
17388,12.2
17390,23.0
17392,31.8
17394,19.1
17395,5.6
17397,33.3
17398,25.5
17399,13.3
17402,7.5
17404,10.5
17405,22.4
17406,-4.7
17408,18.5
17409,34.8
17413,24.6
17414,7.4
17416,33.4
17418,23.9
17419,46.8
17421,18.3
17423,30.6
17424,27.8
17425,23.1
17427,12.1
17428,24.6
17429,29.4
17432,26.2
17433,24.4
17436,25.5
17440,19.0
17443,9.4
17444,10.8
17446,33.2
17447,18.5
17448,19.5
17449,16.4
17450,7.2
17453,14.6
17454,24.1
17457,39.1
17458,26.7
17460,19.1
17463,7.0
17465,20.6
17468,31.1
17469,3.0
17474,15.6
17475,10.6
17480,39.1
17483,24.6
17484,8.7
17485,30.7
17489,20.6
17491,34.0
17492,15.9
17493,14.8
17496,4.5
17497,28.0
17501,27.2
17502,28.4
17504,29.9
17506,0.5
17509,19.1
17510,22.5
17512,29.8
17513,15.2
17516,19.5
17517,44.2
17520,24.3
17522,16.5
17528,8.8
17529,15.9
17530,31.8
17531,20.5
17532,32.2
17535,23.5
17536,7.6
17540,10.0
17542,26.2
17543,9.2
17545,10.6
17549,26.8
17550,28.4
17551,23.8
17553,17.8
17554,5.6
17559,13.3
17564,18.4
17565,11.8
17566,-2.1
17567,29.0
17568,34.9
17572,17.8
17573,26.2
17575,11.9
17576,34.4
17577,24.8
17578,19.2
17579,46.8
17581,29.1
17582,29.4
17586,11.6
17589,13.0
17591,23.6
17593,21.2
17595,26.1
17597,21.7
17602,34.8
17603,13.3
17604,20.1
17606,10.7
17607,33.1
17609,15.6
17611,27.8
17612,5.1
17613,18.3
17615,36.5
17618,9.9
17621,29.6
17627,7.1
17628,3.0
17629,6.4
17630,14.8
17631,25.0
17632,24.4
17635,5.2
17636,7.3
17637,27.2
17638,33.1
17640,39.1
17642,18.3
17643,28.5
17649,12.4
17650,5.0
17651,20.8
17652,18.5
17653,25.7
17655,9.5
17658,20.4
17660,13.7
17664,7.0
17665,3.0
17666,32.0
17669,8.8
17670,27.2
17671,15.3
17672,29.1
17673,11.3
17674,21.0
17676,44.2
17680,28.5
17682,22.1
17685,17.8
17688,15.9
17690,25.0
17692,14.9
17693,10.1
17694,17.3
17699,35.0
17701,26.2
17702,15.4
17704,24.9
17709,15.0
17713,20.3
17714,3.0
17717,16.6
17721,19.2
17724,18.1
17725,-4.7
17727,8.1
17729,20.7
17731,12.4
17733,6.6
17737,46.8
17739,10.6
17740,28.8
17741,29.4
17742,27.4
17743,23.0
17746,6.3
17748,9.9
17750,26.2
17751,22.7
17754,32.2
17757,13.6
17758,19.3
17761,13.6
17762,13.3
17765,23.0
17767,17.4
17768,30.4
17770,32.6
17771,13.7
17772,26.1
17773,26.5
17775,36.5
17782,16.8
17784,27.8
17787,0.5
17788,31.4
17789,33.5
17790,12.3
17793,33.9
17794,10.1
17798,27.8
17799,36.5
17804,34.2
17805,24.7
17808,24.6
17811,18.5
17812,32.3
17814,24.9
17815,11.1
17816,15.3
17817,23.5
17818,30.1
17819,21.4
17820,8.8
17822,29.6
17823,3.0
17824,19.9
17825,34.2
17830,14.6
17836,44.2
17837,33.4
17839,24.8
17840,11.4
17841,26.6
17843,29.1
17844,33.3
17845,25.9
17846,28.8
17848,13.3
17849,8.4
17850,19.7
17851,27.7
17852,16.1
17853,33.1
17854,7.2
17855,29.1
17856,24.8
17857,33.7
17858,28.7
17860,26.2
17865,9.2
17866,12.2
17867,24.4
17868,14.0
17869,8.9
17871,15.7
17872,5.6
17873,32.6
17874,22.2
17875,28.5
17878,20.9
17879,29.0
17881,8.5
17882,14.3
17884,-2.1
17886,23.2
17892,13.5
17897,46.8
17900,34.3
17905,27.5
17906,18.0
17909,26.2
17910,12.2
17911,23.5
17915,15.7
17919,15.5
17920,10.7
17921,15.6
17922,13.3
17925,29.4
17926,12.7
17927,32.7
17929,7.4
17931,7.0
17932,27.9
17934,33.9
17936,20.5
17937,30.4
17938,32.1
17939,14.6
17940,10.6
17941,32.6
17942,9.8
17943,34.0
17944,25.3
17945,8.5
17946,-2.1
17949,10.4
17950,29.6
17952,23.9
17953,7.1
17957,22.4
17958,31.3
17959,17.8
17961,33.5
17963,17.3
17965,13.3
17969,7.1
17970,28.1
17971,12.7
17972,13.3
17977,19.4
17979,6.5
17981,15.8
17982,8.2
17984,-4.7
17986,4.9
17988,6.3
17989,24.5
17990,11.6
17992,11.5
17996,46.8
17998,12.3
18000,5.8
18006,7.0
18009,23.6
18011,9.7
18012,9.2
18021,13.3
18022,10.4
18023,16.1
18026,10.1
18028,19.8
18029,31.2
18030,16.2
18031,13.0
18032,32.1
18033,5.4
18034,39.1
18038,21.8
18040,34.7
18041,24.5
18042,19.0
18043,7.4
18044,20.8
18046,5.6
18054,28.0
18055,15.7
18056,27.0
18058,36.5
18060,15.6
18062,19.0
18064,24.3
18067,25.4
18070,15.9
18072,6.0
18075,16.9
18078,33.7
18079,19.5
18080,5.3
18081,20.9
18082,0.5
18085,30.2
18086,16.2
18087,5.5
18089,13.3
18090,19.5
18092,29.2
18093,10.9
18094,46.8
18097,11.0
18098,29.6
18101,9.0
18104,30.2
18107,18.5
18108,24.3
18109,28.7
18113,12.0
18114,17.3
18115,13.3
18119,26.2
18120,22.3
18121,6.6
18123,5.1
18124,26.3
18126,25.2
18130,11.2
18131,3.0
18134,25.1
18136,16.0
18138,32.3
18140,28.7
18143,-2.1
18144,21.6
18145,33.9
18148,26.3
18149,27.3
18151,24.0
18152,11.1
18155,46.8
18156,8.1
18158,29.2
18160,34.9
18161,25.9
18164,22.5
18168,23.6
18171,25.2
18172,7.8
18174,6.1
18179,30.8
18180,21.3
18181,13.3
18184,7.1
18187,16.3
18188,20.9
18193,36.5
18194,22.0
18195,18.4
18197,4.3
18202,12.6
18203,7.7
18205,5.6
18210,14.3
18211,11.6
18212,22.5
18213,23.8
18216,36.5
18221,16.3
18226,8.3
18229,31.1
18230,15.9
18232,33.5
18234,16.4
18235,4.1
18238,9.4
18240,17.1
18242,0.5
18244,26.8
18247,27.5
18248,21.1
18249,19.8
18250,15.4
18253,44.2
18254,12.6
18256,4.3
18258,30.8
18261,32.8
18263,11.2
18264,28.0
18265,15.4
18266,15.9
18267,11.2
18278,26.2
18280,19.6
18282,13.2
18286,25.2
18289,23.3
18290,5.6
18292,6.6
18294,16.7
18295,17.9
18297,31.4
18299,14.1
18300,6.6
18302,-4.7
18308,13.7
18310,32.5
18311,15.7
18314,10.7
18315,46.8
18317,25.4
18318,14.7
18320,4.8
18323,9.1
18324,6.5
18325,5.5
18327,26.2
18332,29.0
18336,6.7
18337,32.2
18338,11.6
18339,13.3
18340,6.7
18348,14.2
18349,19.9
18351,23.7
18352,36.5
18355,25.9
18356,21.6
18363,4.4
18365,0.5
18366,10.8
18367,29.0
18369,30.7
18370,18.1
18372,19.3
18373,19.3
18375,30.6
18376,39.1
18387,25.7
18388,15.9
18389,10.0
18391,14.7
18401,0.5
18402,19.5
18403,32.1
18404,31.7
18406,13.4
18412,46.8
18413,8.0
18415,32.2
18418,25.7
18424,15.9
18425,4.1
18426,6.9
18431,16.2
18432,20.8
18438,26.2
18439,11.2
18440,23.7
18448,21.2
18450,5.6
18455,13.9
18457,11.4
18461,-2.1
18462,15.9
18463,12.0
18464,27.4
18466,18.1
18467,29.8
18473,46.8
18474,18.2
18486,26.2
18487,30.8
18488,17.5
18491,5.9
18492,16.0
18493,11.0
18497,14.1
18499,13.3
18500,33.6
18501,30.1
18502,32.9
18505,28.8
18507,18.1
18508,23.7
18509,30.1
18511,33.9
18514,30.1
18517,23.8
18519,18.6
18520,11.3
18524,0.5
18527,11.1
18529,9.5
18530,22.0
18532,17.0
18533,29.7
18535,39.1
18539,26.5
18541,14.3
18542,27.4
18547,18.5
18552,19.5
18559,34.4
18560,0.5
18561,34.8
18563,14.5
18566,28.2
18572,44.2
18573,13.4
18575,12.7
18584,13.3
18585,20.5
18587,5.3
18589,13.4
18591,31.1
18596,26.2
18599,17.6
18601,28.9
18603,30.2
18605,20.8
18607,34.7
18609,5.6
18610,16.0
18611,30.5
18615,30.2
18617,9.0
18620,-2.1
18621,5.6
18624,22.4
18626,30.3
18629,31.6
18630,15.2
18631,22.0
18632,31.6
18633,46.8
18634,28.9
18635,16.8
18639,7.6
18640,7.3
18642,19.0
18646,26.2
18647,34.8
18650,18.7
18655,13.5
18656,17.9
18658,15.9
18659,13.0
18663,27.0
18667,17.0
18668,18.3
18670,36.5
18673,19.9
18676,28.5
18677,8.7
18680,16.0
18682,-2.1
18684,21.9
18685,13.2
18686,14.5
18688,33.2
18690,25.1
18692,27.5
18696,31.3
18697,22.0
18700,22.9
18704,12.0
18706,25.2
18707,20.4
18708,10.8
18709,14.8
18710,16.9
18711,30.1
18712,15.7
18714,22.3
18716,22.5
18719,32.6
18720,-4.7
18725,33.6
18726,26.3
18727,16.6
18729,10.8
18730,8.1
18731,16.7
18733,46.8
18735,21.0
18737,5.0
18738,27.8
18741,17.7
18742,17.7
18743,18.1
18745,26.2
18746,22.5
18748,18.5
18749,27.5
18751,10.4
18753,21.5
18757,13.3
18763,29.6
18767,8.5
18769,10.9
18770,39.1
18771,18.5
18772,9.7
18774,27.1
18775,27.5
18778,17.8
18782,24.8
18783,8.2
18784,6.6
18785,33.3
18786,27.5
18791,34.6
18794,36.5
18796,7.8
18799,21.2
18806,15.9
18809,17.0
18811,9.8
18812,28.6
18814,16.6
18817,34.0
18819,0.5
18824,24.2
18827,9.2
18830,10.3
18831,44.2
18832,11.2
18833,25.2
18835,28.1
18837,5.6
18838,8.4
18843,18.5
18844,23.1
18847,32.8
18848,11.8
18850,15.8
18852,28.4
18854,29.2
18855,26.2
18856,31.6
18857,29.9
18858,33.5
18860,15.7
18861,34.5
18864,12.0
18865,11.0
18866,32.4
18868,3.0
18869,16.4
18870,14.7
18871,8.0
18874,14.6
18875,20.7
18876,16.1
18878,28.1
18879,-4.7
18883,22.6
18886,6.8
18887,19.7
18889,11.5
18891,46.8
18892,26.2
18893,5.5
18895,28.3
18897,30.7
18898,12.2
18899,20.5
18900,29.7
18905,26.2
18908,14.4
18909,20.5
18910,28.2
18917,13.3
18920,14.6
18922,7.3
18924,33.8
18926,23.6
18928,27.7
18929,36.5
18930,20.1
18934,4.3
18935,9.2
18940,14.9
18941,5.6
18945,13.6
18949,8.4
18950,28.9
18951,14.0
18953,39.1
18955,34.2
18956,16.7
18959,34.8
18961,34.1
18962,15.3
18965,28.8
18966,15.9
18967,18.9
18968,30.6
18969,33.5
18970,21.1
18974,23.8
18975,17.8
18977,16.3
18978,0.5
18979,25.0
18981,5.3
18984,26.4
18987,33.5
18988,9.2
18989,11.7
18990,44.2
18991,6.3
18992,18.9
18994,32.0
18995,6.9
19000,34.0
19002,18.5
19005,32.0
19007,21.4
19012,33.9
19013,32.6
19014,26.2
19015,33.5
19017,28.0
19018,24.5
19024,20.7
19025,18.6
19027,3.0
19028,20.3
19032,19.0
19033,32.5
19035,20.1
19039,-4.7
19040,10.3
19042,28.7
19043,6.4
19045,28.8
19046,29.0
19049,21.6
19050,28.7
19051,46.8
19054,9.4
19057,29.3
19058,18.7
19059,24.7
19062,16.2
19063,23.6
19067,13.3
19068,17.2
19069,11.3
19070,27.6
19071,20.8
19072,19.7
19076,13.3
19077,18.6
19079,4.6
19081,6.4
19083,5.3
19084,20.3
19085,13.7
19087,25.2
19088,36.5
19090,8.7
19094,4.7
19096,25.1
19097,26.6
19098,24.3
19101,3.0
19103,4.1
19104,26.4
19112,36.5
19113,19.2
19116,13.2
19120,33.4
19122,6.1
19125,18.5
19127,12.5
19129,19.4
19130,8.3
19132,30.8
19135,6.1
19136,30.9
19137,0.5
19139,12.3
19140,16.9
19142,31.1
19143,13.9
19146,26.9
19147,28.2
19148,44.2
19149,15.0
19151,16.6
19154,25.1
19155,17.9
19159,12.5
19160,29.6
19161,11.1
19162,15.9
19164,26.4
19165,5.7
19168,20.6
19171,27.8
19172,13.1
19174,26.2
19176,20.8
19179,33.1
19180,9.8
19181,4.4
19182,34.0
19183,19.7
19186,5.6
19188,19.3
19189,32.0
19190,25.4
19191,10.7
19194,20.6
19197,-2.1
19198,24.0
19200,17.2
19203,28.7
19204,30.8
19208,14.4
19210,46.8
19211,34.3
19213,8.8
19214,8.2
19216,19.0
19219,12.3
19221,24.6
19222,26.2
19223,14.6
19225,25.8
19230,23.2
19235,13.3
19238,18.3
19242,7.0
19246,5.4
19247,7.3
19248,36.5
19249,17.4
19250,22.9
19251,30.3
19252,19.0
19255,8.1
19256,23.1
19259,14.9
19260,3.0
19262,21.7
19263,5.4
19264,30.3
19265,8.8
19267,26.4
19268,14.9
19271,39.1
19272,11.4
19273,25.9
19275,34.1
19278,17.9
19280,4.1
19281,12.3
19283,15.9
19284,24.1
19286,10.1
19289,18.8
19292,14.6
19294,9.0
19297,0.5
19300,32.2
19302,14.7
19304,33.9
19307,23.6
19308,41.6
19310,15.5
19311,14.0
19312,7.9
19316,17.3
19319,10.5
19320,15.9
19322,22.7
19324,17.8
19326,12.8
19327,9.1
19328,4.6
19332,28.4
19333,26.2
19335,14.4
19338,33.0
19342,13.4
19344,30.6
19345,5.6
19348,34.8
19350,33.9
19353,32.4
19354,13.3
19356,-2.1
19359,29.1
19360,29.6
19363,22.1
19364,8.9
19365,8.0
19366,22.6
19368,20.0
19369,46.8
19370,20.9
19374,25.5
19375,9.5
19376,24.2
19378,33.5
19379,34.0
19382,26.2
19383,32.4
19390,26.6
19391,11.3
19393,32.6
19394,15.9
19399,17.5
19401,28.5
19405,18.9
19406,33.9
19407,31.3
19413,12.0
19417,9.9
19419,0.5
19423,13.5
19427,23.5
19431,39.1
19432,14.6
19434,13.4
19435,31.8
19437,20.1
19442,9.1
19443,18.5
19445,34.2
19447,15.7
19448,18.8
19449,14.5
19450,16.6
19453,26.0
19456,3.0
19459,13.5
19460,31.7
19461,30.9
19463,24.1
19467,44.2
19468,29.9
19469,23.0
19474,21.7
19475,27.6
19476,11.0
19478,32.8
19479,13.3
19485,24.1
19489,23.9
19491,26.2
19493,7.9
19499,18.6
19500,30.8
19502,33.8
19505,8.2
19506,23.4
19508,26.4
19509,21.6
19510,4.3
19511,6.0
19516,-2.1
19520,25.7
19522,19.0
19526,18.8
19528,46.8
19529,8.0
19530,31.2
19536,16.6
19537,25.5
19539,34.0
19540,26.2
19542,29.8
19545,7.9
19550,12.1
19553,15.9
19555,8.8
19557,5.0
19559,16.8
19560,22.6
19561,5.6
19563,27.6
19564,26.3
19566,31.3
19567,12.3
19569,29.7
19570,34.2
19572,32.3
19578,-4.7
19580,25.0
19582,8.6
19584,11.5
19585,33.3
19586,7.5
19591,31.3
19594,18.3
19596,29.4
19598,16.3
19599,32.3
19600,12.0
19601,33.8
19603,13.3
19604,14.2
19606,21.7
19607,28.4
19610,31.2
19614,23.7
19615,-4.7
19616,20.2
19617,7.9
19619,22.9
19621,10.9
19623,34.3
19624,22.9
19626,34.5
19628,12.5
19629,46.8
19630,28.8
19632,9.1
19635,21.8
19637,23.8
19638,29.9
19639,33.8
19640,24.1
19641,26.2
19644,14.0
19645,16.9
19647,16.9
19648,25.5
19649,28.4
19652,28.7
19653,13.3
19654,6.6
19657,14.9
19658,30.8
19659,4.6
19665,39.1
19666,9.2
19668,17.4
19670,32.3
19672,27.0
19674,18.4
19677,28.2
19678,5.6
19679,16.5
19683,4.3
19685,26.3
19687,8.4
19688,21.4
19689,36.5
19690,21.8
19691,25.8
19694,23.7
19695,17.4
19696,30.1
19698,16.6
19702,15.9
19704,30.8
19705,24.0
19706,13.3
19707,18.0
19708,19.2
19710,30.1
19711,25.9
19715,0.5
19716,13.9
19719,24.4
19720,5.6
19723,32.6
19724,9.5
19725,11.7
19726,44.2
19728,16.4
19729,19.3
19731,8.5
19732,25.9
19734,5.9
19735,17.4
19737,33.5
19738,15.9
19740,29.2
19742,12.3
19745,21.7
19747,23.3
19748,13.5
19749,11.2
19750,23.6
19753,21.8
19754,22.2
19755,12.6
19756,30.5
19757,26.9
19758,24.8
19759,30.8
19760,28.5
19763,25.4
19764,5.6
19766,9.4
19767,18.5
19769,25.5
19770,14.4
19772,10.1
19775,-4.7
19781,29.6
19785,29.6
19787,46.8
19789,7.1
19790,10.9
19793,4.6
19794,18.9
19795,12.6
19800,26.2
19801,11.7
19803,31.8
19804,25.1
19805,5.6
19806,34.6
19808,17.1
19810,7.1
19812,13.3
19813,9.5
19814,13.1
19816,18.7
19817,11.9
19820,23.6
19823,20.7
19824,36.5
19826,9.9
19827,29.4
19828,8.9
19830,11.5
19832,14.8
19833,14.1
19834,6.3
19836,5.5
19837,3.0
19839,11.7
19843,8.1
19844,7.0
19846,4.9
19847,26.0
19849,39.1
19852,15.3
19856,15.1
19858,20.6
19859,19.5
19860,28.9
19861,15.9
19863,33.6
19867,12.3
19873,0.5
19875,34.9
19876,5.6
19879,8.7
19881,31.8
19882,29.4
19884,24.9
19885,44.2
19887,33.3
19889,16.2
19890,6.2
19891,22.4
19892,8.8
19894,29.2
19896,30.5
19897,8.1
19898,15.9
19903,11.2
19910,26.2
19917,28.8
19918,5.1
19921,19.1
19922,5.6
19924,20.0
19925,22.2
19929,30.2
19930,29.5
19931,26.7
19932,31.5
19933,32.0
19934,-2.1
19936,14.8
19938,27.0
19939,26.6
19941,13.6
19944,33.8
19945,32.9
19946,46.8
19947,34.2
19949,23.1
19950,31.1
19952,7.4
19954,25.5
19956,30.6
19957,13.7
19958,26.2
19959,19.4
19962,7.8
19963,32.9
19965,17.4
19967,11.1
19970,33.7
19972,15.9
19973,23.6
19975,8.1
19976,12.6
19977,11.6
19978,30.0
19979,17.3
19980,27.1
19981,8.2
19982,30.4
19983,24.8
19984,36.5
19986,31.1
19990,24.4
19996,3.0
19997,31.6
20001,26.2
20003,11.4
20004,8.1
20005,31.1
20006,4.0
20007,39.1
20009,17.5
20010,6.3
20012,5.3
20014,8.8
20018,13.7
20019,21.4
20020,18.5
20021,15.9
20022,29.1
20024,24.7
20025,17.0
20029,17.8
20031,31.2
20033,0.5
20034,13.5
20036,25.3
20042,25.5
20043,17.1
20044,44.2
20045,32.3
20046,19.7
20050,27.1
20051,22.4
20054,7.4
20055,6.4
20056,12.8
20057,15.9
20059,27.4
20061,26.7
20063,30.3
20065,26.7
20067,22.6
20068,19.1
20069,28.8
20071,19.9
20073,19.5
20081,5.6
20082,7.0
20083,22.4
20088,5.2
20091,28.8
20093,-2.1
20094,31.8
20095,24.3
20097,16.0
20098,11.5
20101,20.2
20102,16.6
20104,19.8
20106,49.3
20107,25.9
20108,26.7
20109,6.7
20110,29.3
20113,14.9
20116,17.0
20118,26.2
20121,22.5
20122,34.8
20123,23.5
20126,24.5
20127,15.8
20128,34.8
20130,13.3
20131,27.5
20132,20.6
20133,9.0
20137,18.8
20141,20.2
20142,4.4
20143,33.9
20144,33.4
20150,26.2
20152,8.9
20154,4.1
20155,-2.1
20161,23.8
20164,21.2
20168,31.3
20171,24.9
20175,33.3
20177,13.0
20179,8.8
20180,10.8
20183,10.0
20184,10.5
20187,17.0
20190,4.6
20191,20.0
20193,-4.7
20195,26.5
20199,26.1
20200,4.9
20205,44.2
20206,20.5
20209,5.5
20210,16.4
20211,17.7
20212,31.4
20214,27.6
20215,22.1
20217,26.2
20219,34.6
20225,15.5
20229,23.9
20231,13.3
20234,14.7
20237,12.8
20239,21.0
20240,16.8
20241,31.6
20243,39.1
20245,12.1
20246,18.9
20247,21.5
20248,33.3
20252,15.7
20254,20.0
20255,8.2
20259,17.0
20260,15.5
20263,30.9
20265,14.5
20267,36.5
20269,19.2
20272,7.1
20274,17.2
20276,15.0
20277,5.4
20279,15.9
20281,24.7
20283,28.7
20284,29.5
20285,10.4
20286,13.4
20289,32.7
20290,6.8
20291,5.5
20292,-2.1
20294,23.4
20295,17.6
20297,22.2
20298,8.5
20300,26.3
20301,8.2
20303,20.4
20304,49.3
20306,33.8
20307,17.3
20311,27.5
20313,10.6
20314,27.9
20316,25.8
20317,26.2
20318,18.9
20319,11.5
20322,25.0
20325,7.1
20327,19.3
20328,21.3
20329,18.5
20330,7.4
20332,28.3
20336,30.0
20337,7.3
20339,12.8
20340,18.9
20341,26.2
20342,8.8
20344,30.4
20347,8.5
20349,24.6
20350,8.3
20351,15.6
20352,29.4
20353,14.4
20354,-15.0
20356,4.7
20360,5.8
20362,14.6
20363,22.3
20368,28.8
20370,5.0
20372,34.8
20375,26.3
20376,24.6
20378,22.2
20380,5.6
20381,21.1
20382,10.5
20385,30.2
20388,16.4
20391,-4.7
20393,18.2
20395,20.1
20396,18.8
20398,13.6
20399,7.0
20400,10.7
20402,10.3
20403,28.6
20404,46.8
20407,12.7
20409,20.3
20412,27.9
20414,5.8
20415,4.9
20416,26.2
20417,6.5
20418,10.9
20419,8.9
20423,13.5
20424,33.0
20425,34.6
20426,19.2
20429,13.3
20433,34.2
20434,12.6
20435,17.6
20437,21.6
20438,33.8
20440,16.8
20441,34.7
20442,33.9
20443,16.8
20444,16.0
20445,19.9
20449,19.4
20450,10.0
20451,7.1
20454,-2.1
20455,22.8
20457,15.7
20458,8.5
20462,8.8
20464,28.1
20466,31.3
20467,23.6
20469,5.7
20472,9.1
20473,11.7
20475,8.0
20478,13.3
20481,31.8
20482,12.9
20486,15.5
20491,27.1
20492,-4.7
20493,18.0
20494,30.3
20496,33.6
20499,9.7
20500,6.4
20504,46.8
20505,15.4
20506,21.5
20511,5.3
20516,26.2
20518,12.1
20519,32.6
20525,30.4
20529,13.3
20531,9.1
20535,30.7
20536,31.4
20541,39.1
20542,4.4
20543,6.2
20544,16.5
20545,5.3
20546,20.8
20548,7.6
20551,9.6
20553,8.2
20554,22.0
20555,19.1
20556,21.2
20558,27.9
20560,19.1
20561,23.0
20562,22.1
20564,15.8
20565,10.0
20566,36.5
20569,6.6
20570,8.4
20571,16.1
20572,14.0
20573,21.1
20574,29.2
20576,30.6
20578,18.5
20579,13.4
20583,8.8
20585,8.5
20587,28.8
20588,12.0
20590,0.5
20595,21.2
20596,11.8
20597,20.9
20599,16.2
20601,44.2
20602,26.4
20603,11.6
20604,18.3
20608,18.3
20609,13.3
20612,5.3
20614,15.9
20615,33.2
20622,30.0
20626,31.0
20627,26.2
20628,32.3
20630,5.0
20631,8.7
20634,25.1
20638,23.6
20639,3.0
20640,29.2
20642,32.5
20643,28.4
20644,22.7
20647,11.7
20650,21.8
20651,-4.7
20652,4.2
20653,6.6
20655,12.2
20656,32.9
20658,28.4
20661,31.1
20663,46.8
20664,21.6
20669,27.1
20671,29.8
20672,29.3
20673,28.9
20675,26.2
20678,23.1
20680,26.7
20681,30.3
20683,15.7
20684,24.4
20686,22.6
20687,13.3
20688,31.5
20696,26.5
20697,16.7
20698,21.1
20699,28.1
20700,13.0
20701,36.5
20702,34.0
20703,10.8
20708,6.4
20709,6.9
20710,27.4
20711,20.0
20713,3.0
20714,7.4
20721,30.6
20723,30.5
20724,36.5
20726,23.6
20730,13.7
20732,33.4
20733,14.6
20735,6.7
20736,25.8
20737,15.9
20739,8.9
20740,23.7
20743,17.8
20744,22.2
20745,4.1
20747,13.7
20748,5.2
20749,0.5
20750,15.2
20751,4.0
20753,27.1
20757,28.6
20758,29.0
20759,32.0
20761,44.2
20762,18.1
20767,13.2
20770,29.3
20771,18.2
20772,10.6
20773,15.9
20775,4.7
20777,7.2
20778,29.1
20780,15.0
20781,32.2
20784,12.4
20785,18.7
20786,26.2
20787,33.3
20789,8.7
20790,14.2
20793,34.3
20798,5.6
20799,22.6
20801,28.5
20805,18.1
20809,-4.7
20810,12.3
20811,10.9
20812,30.6
20817,33.1
20822,46.8
20823,12.2
20825,23.2
20828,22.0
20829,32.6
20831,20.3
20833,4.1
20835,26.2
20837,33.2
20838,11.7
20839,7.3
20840,11.1
20843,27.2
20844,35.0
20846,13.0
20847,13.3
20851,9.8
20852,23.5
20853,33.9
20854,6.2
20855,29.8
20856,4.5
20857,9.2
20858,27.5
20859,36.5
20863,18.0
20864,11.2
20866,6.0
20867,24.0
20869,5.4
20871,19.2
20872,3.0
20873,33.4
20874,11.5
20875,25.2
20880,5.1
20883,39.1
20884,4.8
20885,20.5
20886,16.6
20887,14.3
20888,16.6
20890,6.9
20891,14.0
20893,16.3
20894,16.0
20896,18.5
20898,12.9
20899,5.9
20900,17.7
20901,33.5
20903,16.4
20904,22.6
20909,3.0
20910,31.2
20912,15.7
20915,23.7
20916,22.1
20920,46.8
20922,20.1
20925,12.4
20926,11.8
20928,6.1
20929,4.4
20931,24.1
20932,13.3
20938,16.6
20944,26.2
20946,7.3
20948,34.6
20949,32.6
20956,18.1
20957,18.5
20958,5.6
20959,27.4
20962,17.8
20963,33.4
20964,27.7
20968,10.9
20969,-2.1
20971,18.9
20973,21.8
20974,13.6
20981,46.8
20983,10.1
20985,10.3
20987,34.7
20988,5.1
20989,20.4
20994,26.2
20997,7.4
20999,31.4
21000,17.7
21004,21.8
21006,15.9
21008,27.5
21009,29.8
21013,34.8
21014,12.6
21015,4.7
21016,32.6
21018,36.5
21020,12.3
21022,13.1
21023,33.3
21027,29.1
21031,0.5
21033,14.4
21035,22.3
21037,17.9
21038,11.1
21039,11.2
21040,24.5
21042,13.4
21043,36.5
21044,21.5
21045,16.6
21046,25.7
21049,14.6
21050,33.1
21051,11.1
21054,34.6
21055,18.5
21057,18.9
21065,25.1
21066,29.4
21067,0.5
21069,26.5
21070,15.2
21072,32.1
21073,31.2
21075,27.5
21078,13.6
21079,41.6
21081,25.5
21082,22.2
21083,9.6
21085,23.4
21086,34.4
21089,10.6
21092,13.3
21093,16.0
21094,7.5
21095,26.9
21096,18.8
21098,29.8
21099,11.3
21100,34.8
21101,10.7
21104,26.2
21105,21.6
21111,13.4
21112,17.3
21116,8.2
21119,32.3
21121,12.5
21122,19.4
21126,26.4
21128,-2.1
21132,32.8
21133,10.1
21134,27.1
21138,21.4
21140,46.8
21142,14.8
21145,20.3
21146,30.6
21147,34.1
21148,11.6
21149,23.3
21151,30.8
21152,23.6
21154,24.4
21155,16.0
21156,18.1
21157,6.9
21161,25.7
21163,34.7
21164,33.7
21166,15.9
21167,12.5
21170,10.2
21174,7.9
21178,31.3
21179,27.7
21180,32.4
21183,16.1
21184,33.1
21186,17.3
21187,15.3
21190,-2.1
21192,21.3
21193,7.1
21196,31.1
21197,29.6
21199,18.3
21200,7.9
21201,31.3
21202,33.9
21204,7.8
21205,8.2
21209,4.8
21210,25.6
21212,22.2
21215,10.8
21216,23.0
21226,33.0
21228,-4.7
21232,15.5
21235,12.2
21239,13.4
21240,46.8
21242,10.5
21243,22.4
21250,25.5
21253,26.2
21254,17.9
21256,7.2
21260,13.2
21263,34.3
21265,10.8
21267,24.0
21268,15.2
21271,4.2
21275,31.1
21276,22.6
21277,39.1
21278,11.4
21280,24.5
21281,18.7
21283,30.0
21288,7.1
21290,20.8
21291,8.2
21298,16.2
21300,33.6
21302,36.5
21310,22.1
21314,15.9
21319,8.7
21320,14.0
21321,22.7
21324,30.4
21325,5.7
21326,0.5
21327,4.7
21328,32.6
21329,16.1
21334,5.7
21337,5.5
21338,44.2
21340,6.5
21341,33.7
21342,29.4
21344,24.7
21346,27.2
21350,21.0
21359,6.6
21361,14.1
21363,26.2
21365,6.3
21366,6.2
21369,22.1
21371,10.0
21376,5.6
21377,12.0
21380,11.8
21381,27.9
21383,23.3
21387,-2.1
21391,19.9
21392,8.3
21393,6.7
21395,11.2
21398,5.5
21399,46.8
21401,26.9
21403,19.9
21406,24.3
21407,10.0
21408,30.5
21410,24.6
21411,26.2
21414,15.6
21418,21.8
21421,5.6
21423,25.1
21425,13.3
21426,33.5
21427,32.3
21428,29.4
21429,30.4
21432,18.8
21437,39.1
21444,10.1
21445,32.9
21446,6.3
21447,12.2
21449,5.6
21450,12.1
21451,7.9
21453,25.0
21455,33.3
21456,18.5
21458,23.5
21459,23.5
21460,39.1
21463,16.8
21466,31.9
21467,15.2
21471,13.8
21472,17.0
21473,18.5
21475,22.8
21476,7.9
21478,6.2
21479,34.7
21481,21.0
21482,31.2
21483,4.7
21484,10.6
21485,0.5
21489,6.5
21491,26.5
21492,16.3
21495,12.9
21497,46.8
21498,18.9
21500,6.0
21502,23.5
21503,34.2
21504,10.9
21506,4.9
21507,9.9
21508,12.1
21509,7.6
21510,15.9
21513,23.5
21514,22.8
21517,17.1
21521,9.9
21522,26.2
21523,32.3
21524,22.9
21525,6.0
21526,30.3
21527,17.5
21529,4.5
21530,11.6
21531,11.0
21532,21.9
21533,6.1
21534,5.6
21535,21.7
21536,11.1
21538,9.6
21539,14.6
21541,28.4
21543,20.5
21544,31.5
21545,-2.1
21546,23.7
21551,16.5
21553,18.1
21555,7.2
21559,44.2
21560,15.8
21563,22.7
21571,26.2
21574,18.3
21575,12.1
21578,30.2
21579,21.6
21581,30.2
21583,15.9
21586,9.1
21587,9.8
21589,9.7
21590,23.1
21591,27.6
21592,12.0
21595,25.2
21596,36.5
21597,12.6
21601,33.8
21603,28.8
21606,27.2
21607,17.3
21608,0.5
21611,25.8
21614,20.8
21615,19.7
21619,39.1
21620,31.0
21622,31.4
21623,6.3
21626,28.3
21627,10.9
21630,5.4
21633,15.9
21634,12.0
21636,22.8
21641,20.1
21643,13.9
21645,3.0
21648,19.5
21649,6.6
21651,14.4
21652,25.8
21654,22.4
21656,44.2
21657,24.5
21659,25.5
21660,27.9
21661,32.2
21663,25.7
21666,9.2
21668,15.9
21669,18.9
21671,18.8
21672,22.9
21673,9.3
21674,15.0
21675,7.0
21676,8.7
21680,26.1
21681,26.2
21689,12.3
21691,16.1
21692,11.3
21694,3.0
21698,9.2
21699,16.8
21702,31.5
21703,34.0
21704,16.3
21705,-2.1
21707,4.7
21709,8.5
21710,14.0
21711,13.2
21712,20.6
21714,4.2
21717,23.3
21718,46.8
21719,14.7
21720,23.2
21721,21.6
21727,19.2
21728,27.9
21730,26.2
21732,26.4
21737,34.1
21738,28.7
21740,10.1
21741,29.7
21742,15.9
21743,34.3
21748,30.4
21749,13.8
21750,14.7
21753,21.5
21754,33.9
21756,23.9
21759,8.5
21761,26.3
21764,12.4
21767,6.6
21768,0.5
21770,6.0
21771,24.9
21775,34.6
21776,33.9
21779,39.1
21780,18.1
21784,10.8
21786,20.4
21788,8.6
21789,15.0
21791,15.9
21792,33.7
21793,18.4
21795,17.4
21796,7.2
21798,15.3
21799,21.2
21800,26.6
21801,9.0
21803,10.4
21804,3.0
21805,28.7
21811,20.8
21815,44.2
21816,15.2
21819,33.6
21821,5.0
21823,33.4
21828,13.3
21834,25.7
21835,21.9
21838,9.1
21839,11.8
21840,28.8
21841,23.8
21842,8.3
21843,18.5
21844,33.8
21845,30.0
21846,9.3
21848,7.4
21849,31.5
21851,25.2
21853,8.2
21854,20.2
21855,10.3
21857,9.3
21860,17.7
21861,26.2
21862,34.4
21864,-2.1
21866,27.6
21867,13.0
21872,14.8
21875,9.7
21876,49.3
21878,18.6
21879,4.2
21880,23.1
21885,30.2
21889,26.2
21890,21.1
21894,8.3
21899,18.6
21900,29.7
21902,18.5
21903,6.1
21906,25.1
21907,9.0
21908,23.0
21913,17.3
21914,31.3
21915,31.5
21919,23.5
21920,14.1
21923,8.9
21925,26.7
21926,-4.7
21927,14.1
21928,14.3
21929,25.2
21931,4.6
21937,33.7
21939,31.3
21941,31.4
21943,5.0
21946,7.6
21951,10.8
21953,13.4
21955,20.7
21957,11.9
21958,8.0
21962,17.3
21964,-4.7
21967,9.4
21970,25.4
21972,4.4
21973,17.0
21977,46.8
21978,34.9
21982,8.2
21983,11.5
21984,5.2
21985,27.1
21988,20.4
21989,26.2
21995,4.1
21996,32.0
21998,24.8
22001,13.3
22002,25.2
22004,31.2
22005,23.8
22007,10.1
22011,18.2
22012,29.0
22013,39.1
22016,21.8
22018,34.4
22020,27.8
22023,8.4
22027,3.0
22033,33.7
22036,4.9
22037,22.8
22038,39.1
22040,31.0
22045,26.0
22046,10.9
22047,17.1
22049,31.9
22050,15.9
22051,17.2
22053,16.0
22057,21.3
22058,26.5
22061,13.5
22063,0.5
22065,11.7
22067,30.6
22071,11.9
22074,44.2
22079,12.6
22081,11.8
22082,33.2
22083,16.1
22085,17.5
22086,15.9
22087,12.2
22088,18.4
22090,4.9
22091,20.9
22093,13.0
22097,26.8
22099,23.6
22100,21.1
22101,7.1
22102,26.6
22103,6.9
22104,16.6
22106,8.4
22108,33.3
22110,29.7
22112,5.6
22115,9.3
22116,4.1
22117,8.0
22118,7.0
22119,15.1
22123,-4.7
22124,13.9
22126,4.6
22129,22.9
22135,46.8
22138,29.0
22141,23.1
22142,34.3
22144,16.9
22147,26.7
22148,23.6
22150,28.0
22151,7.8
22152,29.9
22156,26.0
22160,15.5
22161,13.3
22164,25.6
22171,25.6
22172,8.1
22173,36.5
22174,28.6
22175,21.1
22176,5.5
22178,19.6
22185,5.6
22186,21.0
22187,34.5
22188,24.1
22189,23.7
22191,11.3
22193,32.6
22194,26.9
22197,36.5
22199,33.6
22202,30.4
22203,13.5
22205,34.8
22206,9.4
22209,15.9
22210,14.5
22211,31.0
22216,10.2
22217,15.3
22221,27.9
22222,0.5
22227,6.7
22229,32.4
22230,28.1
22232,29.3
22234,46.8
22235,13.9
22236,25.3
22239,29.9
22240,18.4
22243,25.8
22245,21.1
22246,15.9
22248,9.5
22249,5.3
22251,6.6
22252,17.8
22253,20.5
22258,26.2
22259,4.6
22261,11.4
22262,11.9
22266,33.9
22267,28.9
22270,5.6
22273,20.5
22276,28.7
22277,4.2
22280,27.5
22281,18.6
22282,-2.1
22285,29.9
22287,17.4
22291,28.8
22293,30.3
22295,49.3
22297,13.6
22298,31.9
22301,9.5
22303,34.7
22305,10.8
22306,33.7
22307,26.2
22309,14.2
22310,25.5
22311,13.1
22320,13.3
22322,26.7
22323,22.5
22325,9.6
22327,14.1
22328,28.6
22329,21.5
22332,33.9
22336,17.7
22337,17.8
22338,22.6
22339,34.5
22340,6.7
22342,25.1
22344,0.5
22346,28.3
22348,34.7
22349,28.7
22352,10.9
22353,26.0
22354,27.5
22356,39.1
22359,18.5
22363,34.1
22366,17.7
22369,18.5
22371,11.8
22373,27.8
22374,25.2
22376,6.7
22379,16.1
22381,3.0
22383,21.0
22384,34.3
22385,30.3
22391,34.0
22392,44.2
22394,21.7
22395,32.3
22398,5.2
22399,27.5
22400,31.2
22401,24.4
22403,33.9
22404,9.6
22405,13.3
22406,28.1
22408,10.2
22411,26.0
22413,22.4
22416,15.7
22417,26.2
22418,4.2
22419,19.9
22426,12.4
22430,5.6
22431,17.4
22432,27.2
22433,8.0
22438,19.7
22441,-2.1
22442,21.9
22443,20.0
22445,23.1
22448,11.0
22450,25.3
22451,32.5
22452,12.7
22454,46.8
22456,32.0
22457,27.0
22458,27.2
22459,26.6
22462,21.7
22463,27.4
22464,18.9
22466,26.2
22467,31.4
22468,30.2
22470,7.9
22471,7.3
22472,32.1
22477,14.2
22478,13.3
22480,16.2
22481,5.5
22484,28.3
22486,30.3
22487,10.5
22488,25.0
22489,27.2
22490,31.3
22491,25.0
22492,31.3
22493,31.4
22498,8.5
22499,15.3
22502,23.9
22504,-2.1
22505,33.2
22506,30.7
22509,19.9
22511,19.9
22515,7.3
22516,31.3
22517,28.0
22518,12.0
22521,11.3
22522,21.8
22523,16.3
22524,11.5
22525,26.1
22528,31.8
22529,10.8
22530,4.3
22534,4.1
22535,11.4
22536,22.2
22540,23.1
22541,-4.7
22542,34.4
22543,30.3
22544,33.2
22545,24.3
22546,13.2
22548,12.6
22550,18.3
22553,46.8
22555,31.9
22557,24.4
22562,31.0
22564,13.6
22566,26.2
22567,7.4
22570,33.9
22573,18.0
22578,22.0
22579,13.3
22581,29.7
22583,27.1
22585,8.2
22588,23.8
22589,32.7
22590,12.8
22591,39.1
22592,11.2
22593,27.8
22596,29.7
22599,34.8
22603,8.2
22604,7.4
22605,16.1
22610,33.0
22612,26.7
22614,11.7
22615,36.5
22616,22.0
22619,32.5
22620,10.5
22622,22.9
22626,14.2
22627,23.4
22628,18.5
22629,26.0
22632,21.6
22640,0.5
22641,5.7
22644,29.2
22645,25.8
22646,21.7
22651,46.8
22652,17.3
22656,19.7
22661,13.7
22663,19.7
22664,18.5
22667,10.9
22669,24.8
22675,14.2
22676,23.6
22677,24.6
22678,28.7
22679,6.2
22680,18.8
22681,13.6
22683,29.5
22685,34.7
22686,25.0
22688,19.2
22689,3.0
22690,33.6
22694,10.5
22696,34.9
22698,24.2
22699,7.0
22701,-2.1
22703,25.3
22704,18.4
22713,46.8
22714,33.7
22715,6.9
22718,32.6
22719,23.7
22721,10.0
22724,24.4
22725,26.2
22726,23.9
22728,4.1
22735,19.7
22736,10.8
22737,13.3
22743,22.1
22744,8.6
22745,10.1
22746,26.1
22749,14.0
22750,36.5
22756,4.4
22758,32.0
22760,16.7
22761,22.2
22762,14.5
22763,5.6
22766,33.6
22767,14.3
22772,27.7
22773,26.6
22774,39.1
22777,11.0
22778,27.7
22779,33.8
22784,32.8
22785,25.2
22787,15.9
22789,16.2
22791,10.1
22792,18.2
22794,13.7
22796,24.8
22798,14.3
22799,3.0
22803,7.7
22805,23.3
22807,8.8
22809,22.4
22810,44.2
22813,5.7
22816,8.3
22818,8.0
22819,12.3
22822,19.1
22823,15.9
22826,13.1
22828,28.6
22829,14.2
22832,5.0
22834,11.5
22835,15.1
22836,26.2
22837,15.4
22838,25.5
22841,34.6
22843,5.3
22844,34.4
22845,5.1
22846,16.7
22847,18.6
22848,5.6
22855,6.3
22856,17.0
22858,13.6
22859,-4.7
22860,33.0
22861,28.6
22863,21.5
22867,28.8
22870,28.8
22872,46.8
22874,7.4
22876,9.0
22880,21.1
22884,26.2
22888,11.7
22889,24.5
22894,6.9
22896,23.7
22897,13.3
22899,18.8
22902,26.7
22903,28.4
22907,30.1
22909,36.5
22911,14.1
22912,17.6
22914,16.6
22916,32.1
22918,9.2
22919,8.6
22922,3.0
22926,34.3
22930,24.1
22932,24.3
22933,39.1
22934,23.6
22935,15.3
22938,13.2
22939,17.0
22940,25.5
22945,18.5
22946,11.7
22947,4.1
22948,12.0
22950,15.5
22951,29.1
22952,14.5
22953,14.3
22955,7.9
22958,16.6
22959,0.5
22960,25.9
22964,17.3
22966,19.5
22967,19.1
22968,20.7
22969,28.9
22970,44.2
22972,13.7
22973,28.6
22976,11.2
22982,15.9
22983,8.2
22985,16.7
22987,34.6
22988,21.9
22989,22.6
22994,26.2
22998,12.1
22999,29.5
23000,5.1
23003,20.1
23007,5.6
23008,25.5
23012,29.6
23013,16.4
23015,15.7
23018,-2.1
23019,24.5
23020,29.4
23021,8.4
23022,33.8
23023,31.6
23024,21.4
23027,9.7
23031,46.8
23036,25.3
23037,8.6
23040,21.5
23044,26.2
23045,15.6
23046,14.5
23048,4.7
23049,7.2
23050,28.0
23051,5.2
23052,23.9
23053,32.4
23054,4.7
23055,26.4
23056,13.3
23064,33.6
23065,25.0
23067,9.4
23068,33.9
23069,5.7
23071,22.1
23073,10.5
23074,13.6
23076,5.0
23080,0.5
23082,17.5
23084,18.7
23085,9.1
23086,7.5
23087,9.7
23092,6.3
23093,39.1
23095,24.1
23097,25.3
23101,27.4
23102,29.4
23105,18.5
23106,22.2
23107,23.7
23109,30.0
23110,27.0
23111,8.9
23114,32.5
23115,28.3
23117,3.0
23118,22.9
23122,7.5
23123,30.4
23124,11.0
23126,18.9
23128,8.9
23129,44.2
23132,32.5
23134,5.3
23137,5.7
23138,21.3
23140,31.4
23141,13.3
23142,19.8
23143,24.2
23147,17.8
23150,12.7
23151,18.1
23152,5.7
23153,28.8
23155,12.9
23156,21.3
23162,19.2
23163,20.8
23164,31.6
23165,28.5
23166,8.2
23169,31.6
23170,32.9
23171,5.9
23173,10.0
23175,8.9
23177,24.5
23178,0.5
23180,29.7
23181,27.2
23183,4.8
23184,6.5
23188,34.9
23189,46.8
23190,17.1
23193,21.9
23194,5.6
23195,13.0
23196,16.9
23197,17.0
23198,19.6
23199,14.0
23201,23.6
23203,27.0
23204,12.4
23206,16.7
23210,30.2
23213,16.9
23214,21.0
23215,25.5
23217,4.6
23218,17.2
23221,29.7
23223,12.2
