0,216.6
1,186.4
2,232.0
4,196.2
5,250.0
6,218.4
7,232.0
9,176.8
10,214.0
11,160.8
12,206.3
15,221.7
18,207.8
19,188.2
20,142.9
23,247.4
24,158.5
25,180.8
26,142.4
28,155.6
30,182.4
31,173.7
33,219.1
35,209.9
36,145.5
39,156.1
40,206.0
41,181.7
44,262.9
45,188.1
47,154.6
49,214.9
52,181.0
54,224.3
55,180.5
57,211.2
58,205.0
60,184.5
65,255.1
67,168.2
68,153.9
74,183.5
75,242.3
77,155.7
78,162.8
80,184.4
82,154.7
84,194.7
86,257.7
89,165.1
92,149.8
93,195.3
95,172.7
96,252.6
98,206.5
104,157.0
106,255.1
107,166.2
111,158.1
117,247.4
119,205.0
120,202.7
121,144.0
125,181.0
127,209.1
128,168.5
130,232.0
131,194.8
135,155.0
141,234.6
145,162.3
146,170.5
147,147.0
152,211.4
154,178.3
156,199.4
158,214.7
161,187.4
162,171.8
163,257.7
164,214.6
167,219.0
168,158.0
175,242.3
182,205.1
184,150.9
186,242.3
191,188.4
198,232.0
199,160.6
200,170.1
203,203.5
206,161.0
207,212.5
208,144.2
209,216.6
210,187.0
211,186.9
212,142.3
214,143.0
221,232.0
222,143.9
223,187.6
224,167.2
226,158.2
227,141.4
228,212.5
229,206.6
231,194.7
232,211.4
233,167.2
234,147.6
236,146.8
238,187.6
239,193.1
241,163.2
243,257.7
244,163.0
246,192.0
248,171.2
252,198.9
253,181.2
254,244.8
256,181.3
258,189.5
260,215.1
261,207.1
264,189.2
267,237.1
269,176.6
270,169.7
272,153.7
273,212.9
278,226.8
281,169.7
282,202.0
289,221.7
291,179.2
292,190.8
293,185.7
294,200.3
296,150.1
301,247.4
302,181.5
303,148.9
305,187.4
306,154.3
309,145.7
312,224.3
313,199.6
314,177.0
315,183.1
317,192.8
318,193.0
323,262.9
326,190.5
330,145.9
334,151.0
335,252.6
337,182.3
340,155.0
341,188.7
344,208.8
346,211.9
347,237.1
353,177.0
358,224.3
359,214.1
361,200.0
362,182.3
363,213.3
364,161.0
366,166.3
367,147.9
369,216.6
370,161.3
371,214.1
372,174.0
376,200.8
377,152.8
378,219.6
379,218.6
380,247.4
381,148.4
383,154.6
384,157.4
386,142.4
388,182.3
390,167.3
391,174.8
393,219.1
399,182.9
404,247.4
405,202.0
407,186.2
409,188.8
410,218.9
411,206.7
413,146.4
415,237.1
416,215.6
419,166.9
423,140.9
426,205.7
427,221.7
428,199.0
430,189.4
434,213.4
438,219.1
441,217.3
445,197.6
446,190.4
449,208.8
455,153.4
456,148.4
459,177.4
461,247.4
463,143.8
464,165.2
465,184.8
467,174.0
469,173.8
472,156.6
473,226.8
474,205.8
475,169.9
478,190.2
479,192.6
480,199.6
481,183.1
482,141.7
484,247.4
485,197.8
489,216.9
492,141.0
493,206.9
495,237.1
497,165.5
501,150.1
502,171.6
505,199.7
506,224.3
508,149.7
509,186.1
514,203.0
515,146.4
517,159.9
518,226.8
519,208.6
520,150.1
523,185.9
525,177.9
527,150.8
529,209.3
530,219.1
533,168.0
534,159.5
539,174.1
540,185.9
541,260.3
542,195.2
550,166.2
552,237.1
553,182.8
554,148.1
558,180.2
561,149.8
564,244.8
566,162.7
568,144.9
571,150.9
572,157.0
573,176.9
575,237.1
577,172.0
579,212.5
583,214.6
584,203.6
585,182.5
586,221.7
587,156.5
588,200.6
589,151.2
590,175.2
593,157.4
594,167.9
595,197.6
599,224.3
604,172.1
605,159.6
608,168.3
610,208.8
611,203.9
612,144.8
613,140.6
614,166.7
615,165.7
616,209.9
619,200.1
620,217.7
621,255.1
623,147.2
627,190.6
629,163.4
632,232.0
634,193.3
635,146.9
636,166.7
638,170.9
642,170.0
643,186.8
644,232.0
646,185.4
648,168.6
655,224.3
656,203.2
659,149.3
661,170.4
662,159.7
663,216.5
664,189.1
666,192.8
667,214.0
669,207.1
671,212.9
672,177.7
673,154.5
674,142.3
675,152.7
678,229.4
679,187.6
681,219.7
685,192.0
688,172.8
689,167.4
690,208.8
694,159.9
695,154.2
696,146.6
698,204.6
699,160.5
700,205.4
701,255.1
702,194.6
705,146.1
706,211.5
707,189.9
711,195.7
712,234.6
714,216.7
715,165.9
717,211.3
719,166.8
720,209.8
721,190.8
724,232.0
728,164.0
734,206.3
735,143.4
736,232.0
739,169.9
741,150.0
744,155.1
745,184.8
747,224.3
748,140.1
753,179.2
754,157.1
755,161.1
756,178.9
758,244.8
759,156.7
764,150.7
765,208.6
766,209.8
767,161.1
768,160.7
770,221.7
771,161.6
773,149.3
774,200.4
775,158.4
777,165.4
779,156.9
780,141.7
781,257.7
782,172.9
787,203.8
789,173.5
790,172.2
793,239.7
795,195.6
798,208.8
799,192.7
800,188.5
801,217.2
804,229.4
807,213.6
810,185.6
811,153.9
813,182.9
816,224.3
818,208.7
821,215.1
824,180.7
827,216.6
828,201.2
831,209.7
834,200.4
835,168.0
838,244.8
839,208.5
840,159.0
841,206.5
843,166.3
846,199.9
847,176.3
849,211.4
851,207.7
853,149.9
855,161.3
857,155.7
858,191.3
860,174.0
862,242.3
865,184.2
867,184.8
868,149.6
872,148.5
873,234.6
876,170.7
880,206.6
881,161.7
882,197.7
883,206.3
884,224.3
885,156.2
887,215.8
889,187.3
892,200.8
894,212.1
896,219.1
898,180.6
899,156.4
902,177.6
907,214.0
909,192.2
910,168.7
912,181.0
915,198.6
916,157.2
918,250.0
921,162.7
922,178.0
923,141.1
924,160.1
928,158.6
930,216.6
933,140.7
935,141.0
937,213.1
939,215.4
942,244.8
943,167.9
944,181.0
946,191.0
948,173.5
949,141.9
953,244.8
955,183.6
957,171.7
959,167.9
961,203.0
964,232.0
968,217.6
969,213.9
972,145.4
975,226.8
976,207.8
978,209.0
980,158.6
984,146.8
985,142.8
986,192.2
987,219.1
988,176.0
989,150.7
990,161.5
993,162.4
994,141.6
995,196.6
996,179.6
999,257.7
1003,187.3
1004,196.3
1006,148.0
1007,157.2
1008,161.7
1010,229.4
1011,219.8
1012,159.2
1013,184.1
1017,146.0
1018,189.7
1020,197.2
1022,234.6
1023,164.8
1024,216.4
1025,213.9
1026,151.5
1027,162.2
1028,216.2
1034,142.3
1035,226.8
1037,198.4
1038,184.6
1047,211.4
1048,152.1
1049,171.2
1052,160.5
1058,214.7
1060,250.0
1061,172.5
1062,154.7
1064,169.9
1065,219.3
1066,207.4
1071,203.5
1072,154.8
1073,237.1
1076,141.1
1078,206.6
1079,195.5
1082,193.9
1083,153.8
1085,221.7
1086,148.0
1088,182.7
1096,189.7
1097,252.6
1100,142.8
1101,164.4
1106,182.1
1107,147.9
1109,170.5
1110,237.1
1113,144.0
1114,141.0
1116,183.7
1119,175.9
1120,192.2
1122,234.6
1124,144.5
1125,214.4
1127,202.3
1128,142.5
1129,166.8
1130,203.4
1132,171.3
1133,204.2
1134,197.7
1135,221.7
1138,145.6
1139,168.8
1143,172.7
1145,183.5
1146,142.5
1147,206.3
1149,167.1
1151,178.1
1157,165.0
1158,144.8
1160,250.0
1163,179.6
1165,150.9
1166,216.4
1168,185.0
1169,141.0
1171,203.9
1172,239.7
1174,157.3
1175,176.9
1176,155.2
1178,202.3
1179,192.3
1181,153.7
1182,147.5
1183,156.3
1184,216.6
1185,205.0
1186,185.3
1191,199.5
1194,177.8
1196,146.0
1198,247.4
1199,171.2
1200,151.4
1202,149.6
1203,204.3
1205,160.3
1206,209.6
1207,196.8
1210,229.4
1213,162.3
1214,172.6
1215,148.9
1217,179.7
1218,185.6
1222,226.8
1223,183.8
1225,219.4
1231,145.5
1233,206.7
1234,221.7
1235,176.4
1236,164.5
1237,172.6
1239,218.7
1241,151.6
1243,158.0
1244,164.1
1247,211.4
1250,208.5
1252,214.5
1253,150.5
1256,168.8
1258,147.4
1260,244.8
1261,171.8
1263,151.5
1264,154.5
1271,212.9
1272,232.0
1273,161.6
1274,146.6
1276,216.3
1280,213.1
1284,193.1
1285,214.0
1291,141.4
1294,161.7
1297,250.0
1299,199.4
1301,175.7
1302,207.4
1303,210.7
1306,170.1
1308,141.8
1309,239.7
1310,194.0
1313,173.7
1323,229.4
1324,190.0
1325,165.3
1335,224.3
1340,158.0
1341,150.4
1342,172.7
1344,192.1
1347,206.3
1348,188.2
1350,164.0
1351,184.6
1352,217.6
1354,194.2
1355,161.6
1357,167.6
1358,195.4
1359,237.1
1364,186.7
1366,168.1
1368,170.6
1369,150.5
1372,224.3
1373,148.5
1374,193.4
1375,165.6
1377,214.4
1383,186.5
1384,211.4
1386,207.3
1389,153.7
1390,174.4
1395,210.5
1396,219.5
1397,247.4
1401,196.2
1402,198.6
1405,204.2
1406,210.8
1407,160.4
1408,184.5
1410,229.4
1413,203.3
1414,212.7
1418,181.1
1420,173.7
1421,157.1
1422,214.0
1424,170.3
1425,144.7
1426,140.8
1427,182.0
1429,165.0
1432,160.7
1433,180.9
1434,219.1
1435,158.5
1436,205.7
1441,184.6
1443,147.1
1444,185.2
1446,211.4
1447,185.8
1450,179.3
1455,189.6
1459,185.4
1460,232.0
1461,146.9
1463,164.1
1466,144.0
1467,185.7
1468,198.1
1472,216.6
1475,182.3
1476,205.9
1477,211.5
1480,218.0
1484,206.3
1488,171.4
1490,217.0
1491,190.0
1492,206.7
1494,202.8
1496,218.4
1497,244.8
1498,162.3
1500,161.5
1506,175.0
1509,237.1
1510,175.9
1512,216.0
1513,180.3
1514,149.4
1516,185.9
1518,182.2
1521,224.3
1522,165.5
1525,174.5
1526,151.8
1528,208.5
1529,153.5
1530,219.8
1531,155.9
1534,229.4
1536,198.1
1537,194.9
1542,199.4
1543,209.3
1544,168.7
1545,166.3
1547,211.4
1551,210.3
1555,200.9
1557,140.2
1558,141.6
1559,229.4
1561,183.9
1562,170.2
1564,203.5
1565,199.5
1567,219.5
1568,176.3
1571,216.6
1572,187.5
1573,189.0
1576,140.3
1577,181.7
1578,201.4
1584,211.4
1585,185.5
1586,147.2
1590,160.2
1591,172.5
1597,247.4
1598,140.2
1599,186.4
1601,208.5
1608,147.4
1609,232.0
1610,185.4
1611,199.3
1614,152.2
1616,158.8
1617,194.8
1618,156.1
1620,176.5
1621,206.5
1622,211.4
1624,193.9
1631,215.6
1632,186.2
1633,176.8
1634,224.3
1635,197.3
1637,143.6
1640,140.7
1641,203.6
1646,219.1
1647,166.9
1649,183.5
1650,207.4
1651,146.6
1653,208.4
1655,212.8
1659,232.0
1660,174.0
1662,220.0
1663,171.1
1665,143.3
1667,141.8
1670,187.7
1671,207.3
1672,216.6
1676,187.2
1677,162.2
1679,157.5
1682,174.8
1683,211.2
1684,203.7
1685,197.8
1686,159.5
1689,175.7
1691,214.4
1693,181.9
1694,146.8
1696,239.7
1698,147.4
1700,188.3
1701,191.7
1702,195.5
1703,166.4
1704,151.3
1706,185.9
1709,226.8
1710,204.4
1711,152.0
1712,141.5
1713,190.9
1715,204.4
1717,193.2
1719,145.5
1721,211.4
1723,156.3
1724,201.0
1726,162.2
1728,172.9
1732,175.7
1734,229.4
1735,170.0
1739,186.0
1740,187.8
1741,162.7
1743,211.2
1745,161.9
1746,214.0
1753,172.4
1754,175.3
1758,197.3
1759,219.1
1764,147.6
1770,184.0
1771,206.3
1772,161.4
1773,191.5
1774,141.3
1775,151.1
1777,201.6
1779,212.8
1780,195.1
1781,152.2
1783,201.1
1788,151.0
1789,157.8
1790,175.7
1791,213.8
1793,163.1
1795,140.1
1796,216.9
1797,242.3
1798,171.3
1800,142.7
1809,229.4
1815,167.7
1816,211.0
1817,179.8
1821,208.8
1822,195.1
1824,212.4
1825,177.4
1826,203.2
1828,168.7
1830,217.7
1833,232.0
1834,172.9
1840,152.8
1841,214.4
1842,167.6
1843,176.4
1844,140.7
1846,219.1
1848,147.0
1851,189.6
1854,219.4
1855,184.8
1857,151.2
1858,196.1
1859,221.7
1861,148.6
1863,149.3
1864,173.5
1865,145.6
1866,154.1
1870,190.5
1871,214.0
1872,166.2
1873,185.2
1875,162.9
1877,209.3
1880,171.8
1882,210.7
1884,201.1
1885,144.9
1886,188.1
1887,157.5
1889,161.2
1891,172.7
1892,144.3
1893,150.2
1896,237.1
1897,159.4
1905,151.5
1907,146.9
1908,224.3
1913,147.2
1914,210.3
1917,212.6
1920,156.0
1921,203.7
1925,212.3
1926,185.4
1930,219.2
1931,190.2
1934,234.6
1936,145.5
1941,147.2
1945,142.3
1946,221.7
1950,212.4
1957,215.7
1958,216.6
1959,197.2
1960,140.9
1961,198.8
1963,174.8
1964,166.0
1968,216.5
1969,201.8
1971,203.7
1977,198.4
1979,217.9
1980,160.7
1983,190.8
1985,170.5
1986,143.7
1988,210.0
1989,192.4
1991,211.5
1996,229.4
1997,218.3
2000,173.5
2001,157.5
2003,190.7
2004,170.6
2005,217.3
2006,148.6
2007,147.0
2009,219.1
2010,158.9
2011,169.3
2013,197.5
2015,203.9
2019,218.6
2021,201.1
2022,217.1
2023,164.7
2024,207.6
2026,160.8
2027,168.0
2032,216.9
2033,229.4
2036,146.6
2041,219.9
2043,182.8
2044,153.1
2045,221.7
2046,165.4
2049,148.1
2050,194.4
2051,206.1
2056,193.5
2058,154.7
2059,214.0
2063,176.2
2064,140.3
2066,171.4
2067,173.5
2068,204.7
2070,214.8
2071,211.4
2072,214.6
2073,202.7
2074,216.2
2077,208.5
2078,162.1
2080,146.1
2082,214.1
2083,203.7
2084,210.3
2085,210.7
2089,172.7
2090,183.7
2091,180.9
2092,207.5
2093,203.2
2094,163.5
2096,226.8
2097,177.4
2098,146.4
2099,152.8
2100,144.8
2101,156.6
2102,141.2
2105,173.0
2108,211.4
2109,214.6
2113,204.5
2114,164.3
2115,185.3
2116,219.5
2117,217.9
2119,150.0
2120,193.4
2121,165.1
2125,161.8
2128,156.8
2129,144.3
2131,198.1
2134,229.4
2135,210.3
2137,200.3
2138,183.8
2139,215.8
2144,152.1
2146,216.6
2148,166.9
2149,191.0
2150,207.5
2153,188.4
2157,200.1
2158,214.0
2159,153.1
2165,160.5
2167,202.9
2170,214.0
2171,141.4
2172,172.0
2176,195.3
2178,204.1
2182,191.4
2183,198.5
2186,147.0
2189,149.9
2190,193.6
2191,189.0
2194,201.9
2196,221.7
2197,183.7
2199,146.4
2202,151.7
2208,208.8
2210,159.9
2213,208.6
2215,174.3
2216,164.5
2219,167.0
2220,186.9
2221,198.5
2223,163.0
2225,210.0
2226,180.2
2228,154.3
2230,145.2
2232,181.3
2233,234.6
2234,186.9
2235,173.6
2236,141.9
2237,172.4
2239,160.8
2242,201.9
2244,167.8
2245,214.0
2246,147.9
2250,148.1
2252,143.5
2253,147.3
2254,205.2
2255,169.7
2256,155.7
2257,200.0
2258,201.1
2260,146.6
2263,198.1
2264,159.8
2265,142.3
2266,196.7
2267,144.1
2269,188.9
2271,208.8
2272,216.1
2275,173.9
2276,205.9
2278,159.2
2279,151.4
2281,197.1
2283,203.7
2288,191.3
2290,180.4
2292,144.2
2293,144.7
2295,219.1
2297,153.1
2298,220.0
2299,156.1
2300,187.6
2301,184.1
2302,187.4
2304,188.4
2308,206.3
2309,216.6
2310,146.4
2311,204.6
2313,142.6
2314,141.1
2316,163.8
2317,214.9
2320,188.3
2321,205.1
2322,159.3
2325,200.0
2328,179.7
2333,224.3
2335,147.9
2337,205.8
2339,201.0
2340,184.4
2342,143.6
2343,199.9
2344,210.8
2345,216.6
2346,200.6
2351,210.7
2353,152.4
2354,219.0
2355,168.4
2358,196.0
2359,197.2
2370,201.1
2371,218.2
2372,219.2
2373,197.7
2379,160.7
2382,203.7
2383,186.5
2384,162.8
2386,218.3
2389,177.3
2390,181.9
2391,209.4
2394,213.7
2396,214.0
2398,190.3
2402,146.2
2403,216.7
2406,167.3
2408,198.5
2409,167.0
2410,153.3
2412,149.6
2419,177.8
2420,190.8
2421,153.3
2422,182.3
2424,209.4
2425,175.5
2426,199.6
2427,177.7
2428,202.4
2430,187.9
2433,224.3
2436,144.5
2438,158.1
2439,149.0
2440,173.2
2442,174.1
2444,184.2
2445,208.8
2452,181.0
2458,188.3
2461,202.3
2464,177.6
2468,206.8
2470,203.7
2473,150.4
2475,156.2
2481,187.7
2482,200.7
2483,203.7
2484,190.7
2486,170.7
2488,178.5
2490,202.0
2493,182.8
2494,178.8
2495,208.8
2496,207.0
2498,143.2
2499,210.3
2507,193.4
2508,184.8
2509,148.5
2517,212.2
2518,154.6
2520,183.1
2522,162.9
2529,141.2
2530,197.8
2531,183.9
2533,216.6
2534,202.8
2538,177.2
2544,217.6
2545,201.1
2548,142.5
2551,153.6
2552,160.6
2553,209.5
2555,155.5
2556,201.4
2557,185.7
2558,157.1
2561,171.6
2562,154.9
2565,217.6
2567,149.7
2569,186.8
2570,206.3
2572,203.1
2578,170.8
2579,193.5
2581,170.6
2582,190.8
2584,168.2
2585,176.5
2587,171.9
2590,177.8
2595,190.8
2596,171.1
2600,175.4
2603,194.6
2604,145.3
2606,189.6
2608,175.4
2609,149.5
2610,186.2
2613,218.6
2614,214.5
2615,195.8
2618,215.2
2620,167.7
2622,215.5
2623,147.2
2625,144.4
2626,149.2
2628,172.5
2630,163.9
2631,151.6
2632,201.1
2634,145.8
2636,178.4
2641,140.8
2644,196.0
2648,155.8
2649,143.7
2651,215.3
2652,205.1
2653,181.8
2656,160.6
2657,202.5
2658,178.0
2662,162.6
2664,157.0
2665,199.8
2669,149.0
2670,201.1
2672,183.1
2675,157.8
2676,151.0
2677,183.3
2678,163.4
2679,145.3
2680,141.9
2682,185.7
2684,164.1
2688,148.6
2689,174.0
2693,204.7
2694,146.0
2695,183.1
2696,141.2
2697,208.7
2700,143.7
2702,148.1
2703,212.9
2704,170.2
2705,197.6
2706,201.1
2707,180.5
2710,197.1
2712,219.1
2713,195.9
2714,172.3
2715,203.5
2718,158.5
2719,178.0
2722,209.4
2724,189.2
2731,166.4
2732,164.8
2733,206.3
2735,147.3
2736,140.3
2740,141.4
2741,149.5
2742,200.9
2743,213.0
2744,173.6
2745,190.8
2747,201.5
2748,152.4
2752,180.4
2753,204.7
2757,172.8
2758,203.0
2765,208.4
2769,196.0
2770,149.8
2772,177.8
2773,184.1
2774,165.7
2775,201.2
2777,209.1
2779,150.9
2780,201.6
2782,193.4
2787,212.5
2788,212.6
2789,166.4
2792,147.9
2795,180.5
2796,158.7
2797,169.8
2799,185.0
2801,180.5
2803,167.3
2805,160.8
2806,170.1
2807,172.8
2808,215.1
2811,143.6
2816,193.7
2817,187.9
2819,152.9
2820,165.1
2822,198.7
2823,141.5
2824,163.7
2825,163.4
2827,200.7
2829,207.4
2831,169.6
2832,188.3
2835,162.4
2836,201.9
2842,177.5
2844,175.4
2846,142.9
2847,145.2
2851,148.1
2852,176.9
2853,144.9
2854,180.0
2855,149.8
2856,170.7
2857,165.1
2858,161.1
2860,192.2
2861,182.5
2865,191.3
2868,158.4
2869,193.2
2870,198.5
2873,144.9
2878,147.8
2880,165.4
2882,188.3
2883,218.3
2884,182.4
2888,202.1
2891,211.1
2893,163.7
2894,172.8
2895,145.8
2896,164.1
2897,207.7
2901,196.5
2903,193.7
2904,170.7
2905,153.0
2907,165.1
2908,153.8
2910,160.8
2911,200.1
2914,194.8
2916,172.2
2919,165.1
2920,151.8
2921,176.1
2926,184.4
2927,206.7
2929,219.8
2931,175.9
2932,188.3
2934,174.3
2937,150.9
2938,175.6
2939,211.4
2940,194.7
2941,151.5
2942,215.6
2944,208.8
2945,172.8
2946,196.5
2948,215.4
2949,156.7
2957,160.0
2966,183.9
2969,190.8
2977,213.7
2978,178.1
2980,195.3
2981,178.0
2982,168.7
2983,150.0
2986,211.4
2988,174.5
2990,180.3
2991,178.0
2992,144.2
2994,211.7
2995,167.7
2996,195.5
2997,203.8
2998,181.4
2999,214.9
3000,219.5
3002,187.3
3003,158.7
3004,144.6
3005,166.8
3006,169.6
3007,167.7
3008,158.8
3009,140.5
3011,203.1
3014,195.0
3017,215.5
3019,160.0
3020,188.3
3021,151.6
3023,156.0
3025,173.4
3026,146.7
3027,212.4
3028,187.7
3029,175.9
3031,216.1
3032,172.8
3035,202.1
3036,165.1
3039,194.5
3042,199.0
3043,172.9
3044,160.0
3046,144.6
3051,177.9
3054,187.6
3056,177.1
3057,152.2
3061,196.9
3064,167.5
3067,152.7
3068,208.0
3069,188.3
3072,186.9
3076,209.0
3078,159.3
3082,178.0
3084,202.5
3086,160.8
3087,207.6
3088,178.1
3094,160.0
3095,208.8
3098,200.0
3100,150.4
3102,198.3
3103,154.4
3106,165.1
3108,196.5
3109,154.0
3110,191.5
3111,178.6
3112,148.5
3116,146.0
3117,177.2
3119,157.4
3122,169.7
3124,211.0
3125,174.1
3127,149.7
3129,179.3
3130,173.8
3131,144.6
3132,172.8
3133,163.6
3134,189.3
3135,183.5
3136,149.1
3137,161.5
3138,184.2
3140,186.2
3142,158.6
3143,170.0
3144,162.5
3145,215.2
3150,206.8
3151,216.4
3152,140.6
3154,186.8
3155,204.5
3156,157.4
3158,155.0
3160,211.9
3161,199.8
3165,219.6
3166,218.7
3169,188.3
3171,203.6
3173,141.1
3176,219.8
3178,211.2
3181,172.8
3182,154.8
3183,171.8
3184,179.6
3185,146.2
3186,173.8
3187,142.0
3192,145.7
3193,177.2
3194,154.8
3195,211.0
3198,141.5
3200,157.3
3201,219.8
3203,172.0
3204,155.5
3207,167.7
3208,211.0
3209,143.1
3211,167.4
3212,140.9
3213,142.6
3215,186.7
3219,165.1
3220,156.7
3222,173.1
3227,176.7
3228,160.3
3231,167.7
3233,162.4
3235,186.2
3237,208.2
3238,209.0
3239,175.2
3241,185.1
3242,202.6
3244,152.2
3245,174.7
3247,159.3
3249,184.4
3250,183.2
3251,216.6
3252,142.6
3253,171.8
3254,214.4
3255,160.8
3256,152.5
3257,142.0
3262,168.0
3263,198.3
3264,205.4
3265,184.0
3267,148.7
3268,188.3
3269,178.0
3271,199.1
3272,158.0
3273,177.0
3274,152.6
3276,200.6
3277,154.4
3278,208.9
3279,152.8
3280,185.8
3281,170.2
3284,205.8
3286,157.8
3287,192.2
3289,163.9
3290,201.8
3291,205.4
3294,157.4
3297,144.8
3300,206.4
3301,197.5
3303,176.2
3305,191.7
3306,170.2
3307,205.9
3317,176.3
3318,160.0
3319,153.3
3320,191.6
3322,168.5
3323,156.4
3327,179.1
3331,189.9
3332,157.4
3339,190.1
3344,144.5
3348,169.9
3350,176.2
3354,140.0
3356,144.5
3360,208.7
3361,174.8
3362,205.3
3365,173.5
3366,179.6
3367,169.1
3368,180.5
3370,173.0
3371,209.7
3373,153.6
3376,183.7
3377,193.2
3381,167.7
3384,213.8
3386,185.2
3389,207.4
3393,153.7
3394,152.2
3398,143.7
3401,154.9
3402,146.2
3406,167.7
3412,169.7
3413,206.0
3414,163.9
3415,205.1
3416,189.6
3417,162.4
3418,183.4
3419,165.1
3420,213.1
3422,186.8
3428,153.9
3430,152.6
3431,160.0
3432,216.6
3433,159.8
3434,153.9
3435,216.6
3436,159.6
3437,145.4
3440,152.3
3443,149.7
3445,169.9
3447,192.2
3448,166.5
3451,208.3
3453,144.8
3454,189.5
3457,142.0
3458,198.4
3459,219.1
3463,162.7
3464,203.7
3469,170.2
3471,194.6
3473,142.7
3475,208.4
3476,186.5
3480,205.1
3481,157.4
3482,204.7
3483,162.8
3485,202.7
3493,144.5
3494,189.9
3495,200.4
3499,159.6
3500,210.0
3502,163.6
3505,159.7
3506,170.2
3508,213.5
3509,187.4
3511,150.6
3513,204.9
3515,142.1
3516,185.1
3518,165.1
3519,199.2
3521,220.0
3526,158.4
3527,150.1
3529,217.3
3531,154.8
3532,161.6
3542,161.6
3544,142.0
3546,152.9
3547,186.4
3550,175.5
3551,166.7
3552,187.9
3556,136.8
3560,165.0
3561,210.0
3566,188.1
3567,150.7
3568,167.7
3569,144.5
3570,151.4
3574,217.4
3576,172.1
3578,146.0
3580,162.5
3582,176.8
3583,187.0
3585,162.2
3587,145.2
3592,141.2
3594,147.1
3597,154.6
3598,202.0
3601,161.5
3606,167.7
3607,147.4
3609,156.3
3613,175.9
3615,189.8
3616,203.7
3617,186.9
3618,160.0
3619,154.5
3620,175.7
3622,196.2
3626,148.0
3627,169.8
3628,197.8
3630,150.2
3631,147.1
3632,173.9
3633,216.1
3634,177.9
3635,152.1
3637,208.2
3639,190.4
3641,171.9
3642,170.6
3643,144.5
3645,211.8
3647,151.3
3649,142.0
3653,189.7
3656,144.5
3659,149.6
3662,204.7
3668,165.1
3669,158.3
3670,140.4
3673,187.4
3675,192.8
3678,210.3
3679,212.2
3681,152.2
3682,165.2
3685,151.0
3686,144.9
3688,153.3
3689,148.5
3691,168.3
3693,139.4
3695,158.4
3701,166.5
3703,140.8
3705,167.7
3706,147.5
3709,156.8
3710,201.8
3718,165.1
3719,148.0
3720,191.2
3722,164.0
3723,193.3
3725,143.9
3726,208.1
3727,178.8
3728,187.3
3729,191.0
3731,152.2
3732,160.9
3733,188.4
3734,150.1
3737,195.4
3738,160.1
3743,144.5
3745,150.5
3746,217.7
3748,180.1
3749,158.9
3750,205.5
3751,190.3
3752,194.0
3753,196.0
3754,183.2
3756,142.0
3757,148.8
3759,154.4
3762,214.2
3766,140.6
3768,154.8
3773,201.7
3774,178.6
3778,143.3
3779,179.4
3780,142.0
3781,170.6
3782,186.0
3783,216.9
3786,210.5
3788,200.6
3789,187.1
3791,218.9
3792,174.4
3793,139.4
3795,147.6
3796,209.8
3797,215.4
3799,153.3
3800,177.4
3801,183.4
3804,163.2
3805,174.7
3806,170.2
3808,144.6
3809,181.6
3813,190.9
3814,202.8
3818,154.8
3819,168.7
3820,182.2
3824,155.4
3825,199.1
3826,153.7
3828,202.0
3829,196.0
3830,134.2
3834,196.8
3838,178.2
3840,172.4
3843,134.2
3844,153.8
3847,199.2
3848,161.3
3849,178.6
3853,192.7
3854,202.3
3856,129.1
3860,169.0
3861,213.9
3863,209.0
3866,191.0
3867,165.5
3868,139.4
3871,169.9
3872,202.9
3874,171.3
3875,184.4
3876,153.8
3880,121.4
3881,209.6
3882,140.7
3885,148.5
3886,154.7
3888,198.3
3889,193.1
3892,190.9
3893,113.7
3895,153.4
3897,210.6
3898,164.0
3899,153.8
3900,172.9
3902,187.1
3904,160.2
3905,136.8
3907,154.4
3909,141.0
3910,208.1
3911,153.6
3916,153.0
3917,129.1
3918,213.8
3920,147.0
3923,185.6
3926,154.0
3927,140.9
3929,141.1
3931,116.2
3935,196.2
3937,173.4
3941,153.6
3943,121.4
3944,195.5
3947,143.2
3954,172.8
3955,111.1
3956,140.0
3957,213.5
3958,211.3
3960,206.2
3962,144.2
3964,186.5
3968,113.7
3971,174.4
3978,154.8
3979,178.2
3980,100.8
3985,162.8
3989,143.1
3990,197.4
3993,93.1
3994,189.2
3995,144.0
3997,200.8
3998,186.0
3999,159.6
4001,201.0
4002,183.1
4003,154.2
4004,123.9
4006,152.8
4007,206.9
4008,147.5
4009,216.0
4012,157.8
4015,208.2
4016,195.6
4017,116.2
4019,173.6
4020,141.7
4023,182.3
4027,176.9
4029,98.2
4032,192.7
4034,165.6
4035,162.5
4036,148.9
4039,194.8
4040,93.1
4041,173.4
4047,207.2
4050,177.9
4052,87.9
4054,174.9
4055,150.4
4059,162.5
4064,113.7
4065,196.7
4067,197.1
4068,168.3
4069,141.2
4076,111.1
4078,166.0
4080,177.0
4084,156.0
4087,173.9
4088,103.4
4092,175.6
4093,174.0
4094,151.7
4098,157.8
4101,93.1
4102,148.9
4104,218.6
4105,210.9
4107,202.9
4108,149.2
4111,191.4
4112,93.1
4113,203.4
4115,160.7
4117,197.0
4120,217.2
4121,164.0
4124,121.4
4126,215.1
4128,197.2
4133,171.1
4134,162.1
4136,121.4
4140,205.4
4142,149.3
4143,199.9
4147,176.8
4149,105.9
4159,177.1
4160,192.7
4161,105.9
4168,171.1
4173,98.2
4174,169.0
4175,216.1
4177,211.5
4181,200.2
4182,173.8
4183,195.4
4186,116.2
4189,203.2
4191,188.4
4192,154.4
4193,218.0
4198,105.9
4200,205.5
4201,210.4
4203,204.7
4205,177.9
4209,208.7
4210,95.6
4212,148.0
4213,184.0
4214,141.6
4217,146.9
4218,207.7
4220,189.6
4221,105.9
4228,185.2
4229,153.8
4230,195.8
4234,98.2
4235,143.3
4237,153.5
4238,184.8
4239,175.6
4241,161.3
4242,161.4
4244,201.5
4245,108.5
4246,153.5
4247,161.5
4255,174.3
4257,166.8
4258,98.2
4259,155.7
4260,205.9
4261,185.8
4262,175.9
4264,200.9
4265,140.9
4266,168.7
4269,163.5
4270,90.5
4273,182.9
4274,199.6
4275,170.3
4281,95.6
4282,200.9
4283,173.4
4284,185.4
4285,162.5
4286,177.4
4287,155.8
4288,174.7
4289,196.5
4290,145.1
4292,93.1
4293,141.0
4294,216.6
4295,187.6
4298,158.2
4299,210.0
4300,190.1
4302,165.0
4303,121.4
4307,199.4
4308,161.4
4309,147.3
4310,198.1
4312,158.8
4316,108.5
4319,202.4
4322,188.3
4323,206.8
4324,142.6
4325,202.5
4327,178.2
4329,98.2
4330,146.2
4331,193.8
4334,144.0
4335,179.1
4337,191.8
4339,172.8
4340,100.8
4341,147.5
4346,157.8
4347,180.4
4348,212.5
4349,161.0
4351,157.0
4352,144.1
4353,100.8
4355,198.2
4356,146.6
4358,200.2
4360,207.5
4361,217.0
4362,168.1
4365,118.8
4366,173.3
4368,211.7
4369,207.9
4372,150.5
4374,210.1
4377,108.5
4381,200.4
4386,172.3
4390,95.6
4391,214.0
4392,212.1
4393,202.6
4395,169.4
4396,163.8
4398,195.5
4399,181.6
4402,113.7
4406,205.3
4407,199.7
4409,185.7
4412,215.1
4414,116.2
4416,151.9
4423,178.0
4424,195.7
4426,108.5
4428,186.1
4433,148.8
4435,202.2
4439,95.6
4442,164.6
4444,143.3
4446,176.4
4450,87.9
4452,207.3
4453,185.0
4456,141.6
4457,218.1
4460,169.1
4461,200.2
4462,113.7
4463,174.3
4465,167.0
4473,142.9
4474,108.5
4476,196.5
4487,103.4
4488,175.5
4489,213.2
4490,187.4
4491,159.7
4492,142.2
4493,178.6
4494,175.2
4498,156.9
4499,98.2
4500,205.4
4501,177.7
4502,203.3
4504,212.4
4505,183.8
4506,150.9
4510,95.6
4512,198.8
4513,173.7
4517,211.0
4519,178.0
4520,186.0
4521,162.5
4523,121.4
4524,146.5
4525,141.3
4527,181.0
4528,180.6
4529,180.6
4530,166.3
4533,180.2
4535,116.2
4536,166.4
4538,187.8
4539,206.1
4540,171.0
4541,200.1
4542,185.8
4544,156.3
4545,194.4
4547,103.4
4549,153.5
4551,181.2
4552,189.4
4555,207.8
4556,200.5
4558,219.0
4559,111.1
4560,141.9
4561,207.5
4564,203.9
4566,191.0
4567,207.9
4569,207.5
4570,190.9
4572,111.1
4573,185.7
4574,151.1
4577,149.4
4578,176.4
4579,161.0
4581,208.5
4585,123.9
4587,173.8
4588,196.0
4592,146.2
4594,209.1
4597,108.5
4602,194.6
4605,175.4
4606,172.6
4609,156.5
4610,98.2
4613,207.1
4614,201.0
4618,172.2
4619,153.0
4621,121.4
4622,214.5
4623,194.1
4624,210.4
4625,178.0
4626,215.5
4628,186.4
4629,154.2
4630,207.0
4633,121.4
4634,207.1
4636,146.4
4638,219.6
4639,205.3
4641,214.4
4642,179.2
4643,184.9
4644,173.5
4645,108.5
4647,165.8
4649,210.7
4651,156.3
4655,204.3
4656,177.1
4658,176.6
4659,100.8
4660,213.2
4667,140.5
4668,173.8
4669,206.4
4670,188.9
4671,90.5
4672,153.7
4673,187.0
4674,152.6
4676,156.5
4679,195.6
4680,182.8
4682,113.7
4683,216.3
4684,158.8
4685,210.7
4687,194.0
4691,159.0
4695,111.1
4696,166.1
4700,195.0
4701,191.2
4702,195.4
4703,149.0
4707,98.2
4708,168.7
4710,185.2
4712,218.3
4713,176.0
4715,219.5
4717,187.9
4719,103.4
4720,145.1
4721,167.2
4723,183.1
4725,155.2
4726,169.4
4728,219.7
4731,98.2
4732,182.4
4733,216.7
4734,161.7
4735,184.9
4736,181.0
4741,202.1
4742,192.7
4743,121.4
4745,159.6
4748,144.3
4754,151.7
4755,108.5
4758,209.7
4761,194.3
4766,199.2
4767,98.2
4770,177.3
4771,183.1
4772,173.1
4773,180.2
4774,214.2
4775,170.9
4776,170.2
4777,191.3
4779,108.5
4782,193.1
4783,194.2
4784,167.5
4785,191.6
4787,186.4
4789,200.4
4790,212.2
4791,144.1
4792,113.7
4794,170.4
4795,208.1
4798,210.6
4799,186.5
4800,197.8
4801,151.4
4802,208.0
4803,180.9
4804,116.2
4806,166.3
4807,156.0
4809,175.9
4810,143.7
4812,178.1
4813,215.0
4814,218.2
4815,173.0
4816,100.8
4817,163.9
4819,175.7
4826,143.8
4827,142.5
4828,190.3
4829,90.5
4830,142.5
4831,191.2
4837,209.3
4838,208.7
4840,121.4
4841,176.3
4844,172.2
4846,182.3
4848,188.1
4849,173.2
4851,153.9
4853,118.8
4854,209.6
4857,163.7
4858,163.9
4859,182.1
4861,200.2
4866,108.5
4872,142.4
4873,208.1
4874,176.6
4876,181.3
4877,192.8
4878,103.4
4879,217.3
4882,216.1
4885,154.7
4886,191.7
4889,190.5
4890,100.8
4891,147.1
4892,173.5
4894,140.2
4898,215.0
4900,194.8
4902,121.4
4904,197.5
4905,210.8
4907,170.8
4909,148.8
4912,204.0
4914,172.5
4915,113.7
4916,150.6
4918,184.6
4921,182.4
4923,207.3
4924,159.2
4927,149.6
4928,108.5
4930,144.5
4934,200.6
4939,154.0
4940,134.2
4942,213.8
4944,155.6
4945,212.1
4947,161.2
4949,161.5
4950,166.1
4951,187.6
4953,123.9
4960,190.4
4961,154.7
4962,160.2
4964,219.9
4965,108.5
4968,194.4
4972,210.0
4973,212.0
4974,146.5
4975,140.9
4977,108.5
4985,199.7
4987,204.8
4989,214.4
4990,105.9
4991,151.4
4993,153.0
4995,210.2
4999,157.2
5001,187.7
5002,186.8
5003,121.4
5011,215.1
5013,152.5
5015,116.2
5023,157.8
5027,108.5
5030,169.1
5031,140.7
5032,184.1
5033,161.3
5034,176.1
5035,205.8
5036,214.1
5040,134.2
5041,144.7
5042,188.8
5044,191.9
5045,175.9
5047,150.5
5050,200.3
5053,123.9
5054,159.4
5055,165.5
5058,207.6
5062,211.3
5064,164.7
5065,113.7
5066,168.2
5067,157.8
5069,201.1
5070,160.5
5074,200.3
5075,196.0
5077,205.2
5078,118.8
5079,203.2
5084,202.3
5087,162.3
5090,113.7
5091,141.3
5092,159.4
5096,172.0
5099,196.1
5100,207.2
5102,116.2
5103,211.9
5104,183.7
5106,149.5
5114,113.7
5117,209.9
5121,185.6
5122,219.8
5123,159.9
5127,169.6
5128,108.5
5134,215.1
5140,139.4
5142,172.0
5144,152.2
5147,155.8
5148,150.2
5149,174.2
5151,170.5
5152,129.1
5155,204.5
5158,188.3
5160,190.0
5161,182.3
5165,113.7
5172,162.7
5173,145.9
5175,169.8
5177,123.9
5181,164.8
5184,205.3
5185,217.4
5187,208.4
5188,193.3
5189,153.9
5190,116.2
5192,199.9
5193,216.1
5195,154.9
5199,182.0
5201,154.8
5202,118.8
5204,216.9
5205,185.1
5206,150.3
5208,170.7
5209,171.9
5211,217.3
5214,215.9
5215,105.9
5216,185.5
5217,172.7
5219,155.1
5220,167.6
5221,188.8
5223,187.2
5227,113.7
5228,211.2
5229,188.1
5231,205.7
5233,187.0
5235,199.0
5236,203.3
5239,136.8
5247,198.7
5248,159.8
5249,165.6
5252,184.2
5253,126.5
5254,178.2
5255,217.8
5258,184.5
5265,108.5
5267,177.1
5268,179.6
5269,188.9
5270,169.8
5271,202.5
5272,141.0
5274,149.7
5276,160.4
5277,129.1
5279,153.8
5281,181.9
5283,209.4
5286,160.1
5287,188.6
5288,159.8
5289,126.5
5291,166.2
5293,188.2
5294,199.7
5295,218.1
5300,188.0
5301,152.4
5302,121.4
5303,150.1
5306,140.8
5312,140.4
5313,145.3
5314,108.5
5315,163.8
5317,192.2
5318,192.7
5319,177.3
5320,171.9
5321,207.2
5322,198.0
5325,215.5
5326,216.5
5327,105.9
5333,164.4
5337,192.2
5340,134.2
5344,158.1
5347,142.7
5348,162.7
5350,214.9
5351,145.7
5352,129.1
5356,164.0
5359,141.3
5360,181.3
5362,186.0
5363,165.7
5364,113.7
5365,212.1
5368,207.5
5369,177.6
5370,142.7
5372,189.0
5377,131.7
5378,174.8
5381,166.2
5383,193.7
5384,163.8
5385,199.4
5387,193.4
5388,195.8
5389,163.7
5390,123.9
5392,140.9
5397,189.7
5399,196.8
5402,118.8
5406,152.1
5411,181.5
5414,111.1
5416,158.7
5418,206.5
5423,142.5
5425,214.6
5426,219.5
5427,105.9
5431,174.2
5432,215.4
5433,148.2
5438,215.5
5439,129.1
5441,184.7
5444,189.6
5447,150.0
5449,215.0
5450,215.2
5451,206.2
5452,121.4
5454,183.6
5457,217.8
5458,205.3
5459,191.9
5462,208.6
5464,172.2
5465,105.9
5466,150.5
5467,140.3
5468,177.9
5469,169.2
5474,190.2
5477,131.7
5478,140.2
5479,189.3
5481,172.7
5482,214.9
5483,174.4
5484,166.7
5488,178.4
5489,129.1
5490,200.6
5491,192.1
5493,198.6
5494,217.1
5497,163.2
5498,207.7
5500,164.8
5501,121.4
5502,203.6
5505,164.6
5506,160.6
5507,196.9
5508,165.4
5509,217.1
5512,192.5
5514,111.1
5515,178.6
5517,189.5
5521,208.0
5524,147.8
5527,105.9
5528,144.1
5530,179.2
5534,155.7
5536,153.6
5538,179.7
5539,131.7
5540,217.7
5541,145.0
5544,173.5
5550,200.6
5552,129.1
5555,200.9
5558,154.3
5560,143.6
5562,195.6
5563,206.7
5564,116.2
5566,199.5
5569,186.7
5572,197.8
5573,187.3
5574,181.3
5576,139.4
5579,155.5
5580,176.8
5581,155.2
5582,198.5
5584,204.8
5585,208.1
5587,164.8
5588,207.7
5589,162.9
5590,129.1
5591,188.7
5599,202.4
5602,118.8
5603,179.5
5604,142.1
5605,200.0
5606,182.8
5608,209.3
5610,202.0
5611,165.2
5612,145.3
5614,116.2
5616,217.5
5617,140.4
5620,207.0
5621,173.1
5624,146.1
5626,116.2
5628,200.6
5629,145.7
5630,177.7
5631,142.7
5633,213.5
5634,184.6
5635,202.5
5639,134.2
5640,168.6
5641,178.7
5642,159.1
5643,192.6
5644,209.1
5646,187.4
5647,146.3
5649,168.1
5652,118.8
5653,155.4
5655,160.5
5656,188.4
5658,145.9
5659,203.6
5660,180.7
5661,167.5
5663,183.6
5664,118.8
5665,146.3
5672,198.9
5673,147.6
5674,211.6
5676,176.2
5677,142.0
5678,161.7
5679,204.1
5684,171.4
5688,169.3
5689,142.0
5692,188.2
5693,149.4
5694,171.9
5695,191.7
5697,205.7
5699,140.2
5701,126.5
5702,162.8
5703,187.0
5712,211.4
5713,129.1
5714,204.1
5715,197.3
5717,165.5
5719,164.9
5720,183.2
5721,218.8
5723,219.6
5724,159.9
5727,118.8
5728,213.8
5729,196.9
5732,152.0
5733,146.5
5734,183.2
5738,194.5
5739,134.2
5741,187.1
5743,171.5
5747,152.8
5748,215.2
5751,121.4
5753,198.5
5755,159.1
5757,169.7
5758,205.7
5760,184.4
5762,194.8
5764,116.2
5766,162.3
5767,217.8
5768,199.5
5770,192.8
5772,182.7
5774,141.0
5776,144.5
5778,171.3
5782,152.6
5784,195.8
5786,147.2
5787,212.1
5789,131.7
5792,162.6
5796,175.0
5798,188.0
5800,209.4
5801,116.2
5803,197.8
5804,167.4
5806,173.4
5807,156.0
5809,214.6
5813,188.4
5814,121.4
5817,177.5
5818,161.1
5823,141.7
5824,212.6
5826,123.9
5827,212.0
5828,201.0
5829,207.2
5831,179.0
5836,180.4
5837,217.2
5838,134.2
5841,184.7
5842,219.4
5843,143.4
5844,153.5
5845,218.3
5849,197.3
5851,188.0
5852,121.4
5854,189.2
5855,183.3
5857,197.8
5858,195.4
5859,210.9
5861,162.6
5864,111.1
5866,157.8
5870,147.4
5872,194.5
5873,212.8
5875,204.9
5876,139.4
5877,170.3
5881,147.7
5883,183.0
5886,184.3
5888,184.9
5889,134.2
5893,167.4
5895,204.0
5897,159.3
5901,121.4
5903,192.7
5904,148.9
5905,192.5
5906,142.6
5907,219.5
5908,203.9
5913,134.2
5916,193.8
5917,152.7
5921,141.4
5926,129.1
5928,158.1
5929,212.4
5935,194.2
5936,178.1
5937,216.2
5939,131.7
5941,169.1
5946,162.3
5947,178.4
5948,195.9
5949,203.2
5950,209.1
5951,118.8
5952,194.3
5954,194.3
5957,151.0
5961,191.2
5963,113.7
5965,155.7
5966,175.5
5967,145.1
5970,171.2
5972,145.9
5973,189.4
5975,167.1
5976,147.1
5979,159.5
5986,161.8
5988,210.1
5989,142.0
5992,178.9
5993,171.0
5995,172.7
5996,209.8
5997,154.4
5998,166.1
5999,200.7
6001,121.4
6002,170.1
6003,140.2
6004,158.6
6005,141.1
6006,199.9
6013,134.2
6019,145.9
6021,182.8
6023,141.3
6024,169.9
6026,126.5
6027,205.0
6030,212.6
6032,140.5
6033,212.5
6034,181.4
6036,143.9
6038,131.7
6043,214.3
6044,144.1
6045,158.9
6047,171.7
6048,159.1
6050,206.3
6051,123.9
6053,169.7
6054,150.3
6055,182.5
6057,191.3
6058,191.8
6060,174.3
6061,207.0
6062,189.9
6064,118.8
6066,187.0
6067,140.9
6068,157.3
6069,143.5
6070,149.5
6071,153.2
6072,204.4
6073,159.0
6075,142.3
6076,147.1
6078,169.2
6081,141.9
6083,161.0
6085,152.6
6088,142.0
6089,156.0
6090,215.4
6094,200.6
6095,185.5
6098,195.7
6099,169.3
6100,131.7
6102,208.6
6105,186.0
6107,206.0
6110,217.5
6113,149.7
6115,143.3
6116,189.9
6119,182.7
6120,143.4
6122,209.0
6124,177.1
6125,213.4
6126,144.5
6130,215.8
6131,214.8
6133,192.9
6134,160.6
6138,139.4
6144,161.9
6145,190.4
6149,216.1
6150,143.5
6151,123.9
6152,162.9
6156,184.5
6157,188.4
6159,195.5
6163,121.4
6167,214.1
6170,158.0
6171,147.2
6173,184.6
6175,152.2
6176,190.4
6178,149.7
6180,183.8
6181,171.1
6182,190.3
6187,182.4
6189,136.8
6191,162.7
6193,207.1
6196,162.6
6199,166.4
6200,218.4
6201,118.8
6203,152.6
6204,153.4
6205,203.5
6210,169.7
6213,139.4
6214,149.9
6217,189.3
6220,144.2
6221,196.0
6224,170.4
6225,131.7
6226,158.8
6227,204.9
6231,148.2
6232,173.6
6233,151.2
6236,183.3
6238,129.1
6242,142.4
6251,126.5
6252,140.8
6257,175.9
6259,191.2
6260,200.6
6262,212.1
6263,123.9
6264,172.5
6265,150.5
6266,168.3
6267,219.5
6268,169.3
6271,169.2
6273,145.7
6276,149.7
6286,216.4
6287,194.5
6288,136.8
6289,145.4
6291,158.4
6292,198.1
6293,216.1
6294,173.9
6295,204.7
6296,165.3
6297,144.3
6300,126.5
6301,182.1
6303,185.8
6312,162.5
6314,169.9
6316,154.3
6317,164.2
6318,156.7
6323,187.3
6324,164.6
6326,149.7
6327,185.4
6333,144.5
6334,170.0
6335,161.1
6336,199.6
6337,157.1
6338,136.8
6345,194.4
6348,165.6
6350,131.7
6355,215.1
6356,213.4
6357,186.7
6359,165.5
6361,176.8
6363,123.9
6364,185.8
6365,198.8
6367,200.7
6370,214.6
6371,191.0
6373,182.5
6374,174.8
6375,147.1
6377,199.5
6378,164.0
6379,197.5
6380,186.5
6381,174.4
6384,171.1
6388,139.4
6389,149.8
6390,158.8
6391,210.5
6392,197.1
6394,179.6
6396,190.2
6397,184.8
6398,171.7
6399,216.4
6400,169.9
6401,126.5
6402,177.5
6403,201.8
6404,217.6
6408,219.5
6409,195.5
6413,152.2
6418,207.8
6424,204.1
6425,136.8
6427,147.1
6432,161.2
6433,208.4
6434,204.5
6435,148.0
6437,126.5
6438,154.8
6439,142.0
6441,168.8
6442,179.1
6443,157.4
6444,208.0
6445,151.5
6446,196.5
6447,195.9
6449,157.0
6450,194.6
6451,129.1
6456,156.8
6457,219.9
6458,172.4
6459,160.7
6460,154.9
6462,184.9
6463,129.1
6467,150.7
6468,159.2
6469,153.1
6470,171.6
6475,152.2
6476,204.3
6481,217.1
6482,170.1
6484,208.8
6485,192.2
6487,160.7
6488,136.8
6489,175.1
6490,213.5
6492,189.8
6493,196.7
6495,157.9
6496,182.8
6497,167.1
6498,151.3
6500,123.9
6502,150.9
6506,194.9
6507,141.7
6509,147.5
6512,154.8
6513,195.1
6514,140.0
6515,173.9
6516,155.1
6517,200.9
6523,154.0
6525,152.2
6526,162.3
6528,151.1
6529,216.9
6530,179.6
6531,145.6
6533,187.3
6535,151.9
6536,188.6
6538,136.8
6540,204.0
6542,178.7
6547,205.6
6549,209.0
6550,139.4
6551,166.3
6554,161.5
6556,167.4
6557,211.7
6561,144.6
6562,126.5
6564,214.1
6565,165.9
6567,185.5
6568,188.7
6569,145.6
6570,184.1
6573,157.7
6574,142.4
6575,144.5
6576,197.3
6580,171.5
6581,162.7
6587,159.7
6588,134.2
6589,193.9
6590,154.7
6591,200.7
6592,219.4
6593,198.0
6598,152.0
6600,126.5
6601,150.3
6602,176.0
6603,177.3
6604,156.3
6605,146.0
6606,210.9
6610,180.5
6612,160.0
6614,216.8
6620,216.4
6624,172.1
6625,147.1
6627,163.9
6630,178.3
6632,214.0
6636,175.4
6637,129.1
6638,156.6
6639,168.9
6640,159.0
6643,203.8
6644,166.8
6646,165.1
6647,189.9
6649,203.7
6650,136.8
6652,150.8
6653,163.0
6656,198.2
6657,143.0
6658,177.8
6659,196.6
6660,198.2
6661,150.6
6662,179.7
6663,131.7
6666,141.5
6667,191.8
6668,174.7
6670,202.5
6672,169.3
6674,153.4
6675,144.5
6677,176.3
6678,151.0
6679,185.5
6681,140.2
6683,214.1
6687,139.4
6688,206.4
6692,141.1
6693,143.2
6698,196.5
6700,126.5
6701,155.3
6703,180.7
6707,218.6
6710,190.7
6712,157.4
6714,203.5
6716,215.5
6721,210.6
6724,203.6
6725,147.1
6727,215.7
6728,198.3
6731,162.6
6733,175.8
6734,165.2
6735,178.9
6736,186.9
6737,136.8
6742,148.4
6746,214.0
6748,218.5
6749,195.9
6750,157.4
6751,185.7
6753,178.8
6754,185.9
6755,183.3
6762,147.1
6765,162.2
6766,219.8
6767,203.2
6770,160.6
6773,213.1
6774,152.2
6777,180.5
6779,142.8
6780,199.2
6781,211.1
6783,205.1
6784,141.1
6788,139.4
6789,162.6
6791,196.2
6793,192.9
6796,151.4
6797,173.4
6800,129.1
6801,209.8
6802,163.7
6803,150.2
6805,199.6
6807,218.0
6810,160.6
6812,162.5
6813,170.5
6820,150.5
6822,152.6
6823,183.8
6824,157.4
6825,196.3
6826,210.4
6827,204.4
6832,146.0
6833,209.4
6837,136.8
6841,148.3
6843,189.3
6844,185.0
6846,167.2
6848,160.1
6849,140.3
6850,152.2
6853,145.9
6854,194.8
6855,175.0
6859,195.9
6862,142.0
6863,213.5
6864,153.1
6865,212.8
6869,205.3
6870,217.8
6874,196.3
6875,144.5
6878,164.3
6879,179.8
6880,153.8
6881,211.2
6884,191.0
6887,136.8
6892,167.3
6894,197.2
6896,199.7
6897,195.7
6898,145.1
6899,129.1
6901,181.1
6903,180.1
6905,151.3
6906,217.2
6907,156.4
6908,182.1
6910,183.7
6912,162.5
6914,178.6
6916,166.4
6917,183.7
6918,207.8
6919,145.4
6920,181.8
6922,170.8
6924,146.2
6925,149.7
6926,198.5
6927,195.8
6932,160.4
6935,191.4
6936,172.1
6937,131.7
6938,177.4
6939,218.4
6940,188.0
6941,217.8
6944,217.5
6946,171.3
6948,200.2
6949,154.8
6950,166.0
6952,174.3
6953,175.5
6954,161.5
6956,202.0
6958,170.9
6959,210.7
6961,183.3
6962,157.4
6963,217.7
6964,208.5
6970,208.6
6971,175.6
6973,156.1
6974,154.8
6975,204.3
6976,144.1
6977,183.4
6978,185.9
6979,151.3
6981,146.7
6985,172.1
6987,144.5
6992,140.6
6995,173.5
6997,168.5
6998,165.5
7000,129.1
7003,176.0
7008,180.5
7010,216.1
7012,160.0
7013,166.4
7014,193.2
7017,181.8
7018,171.9
7021,166.2
7023,200.7
7024,149.7
7028,211.1
7030,168.2
7036,136.8
7038,219.3
7040,153.8
7041,177.6
7042,162.0
7044,140.5
7045,170.9
7047,175.7
7050,160.0
7052,181.7
7054,204.7
7056,204.7
7058,208.5
7062,149.7
7068,163.3
7070,144.6
7071,145.7
7073,170.6
7074,139.4
7075,160.4
7076,148.5
7077,154.0
7082,160.5
7085,164.2
7086,145.5
7087,136.8
7091,181.0
7093,188.9
7095,214.6
7099,131.7
7101,140.4
7103,204.1
7104,206.7
7110,156.1
7111,160.0
7112,172.5
7113,182.8
7118,174.1
7120,181.0
7121,158.7
7124,149.7
7128,165.5
7132,177.6
7133,143.4
7134,145.1
7135,141.6
7137,134.2
7138,159.6
7139,155.5
7140,210.6
7141,163.9
7142,214.9
7144,152.3
7145,157.0
7147,191.4
7149,160.0
7150,144.9
7151,143.6
7152,195.5
7153,198.5
7154,183.2
7155,198.9
7156,157.9
7157,218.6
7160,202.1
7161,154.8
7167,162.2
7168,145.5
7169,161.5
7172,186.3
7173,186.7
7174,144.5
7175,174.7
7177,145.3
7178,188.6
7179,187.7
7180,209.4
7181,213.5
7182,211.6
7187,142.0
7188,210.2
7189,150.8
7194,161.8
7195,219.2
7198,184.4
7199,129.1
7205,148.8
7206,169.0
7210,188.8
7211,182.1
7212,152.2
7213,163.9
7215,213.1
7221,177.1
7222,168.3
7223,201.6
7224,139.4
7225,200.1
7226,179.4
7228,219.0
7231,217.9
7232,141.1
7233,165.7
7234,191.2
7236,131.7
7237,216.3
7241,185.8
7243,194.1
7247,211.1
7248,186.8
7249,167.7
7251,190.2
7256,183.9
7258,151.2
7259,218.6
7262,157.4
7264,140.1
7265,197.4
7266,160.1
7270,151.8
7271,209.8
7274,142.0
7275,208.5
7277,204.1
7278,217.6
7280,168.3
7284,182.4
7285,218.0
7286,139.4
7288,151.2
7289,181.6
7296,188.8
7298,209.7
7299,136.8
7300,177.5
7302,207.6
7303,152.3
7306,158.2
7307,185.1
7308,175.2
7310,176.8
7311,160.0
7313,162.9
7314,174.9
7317,169.0
7318,169.2
7319,215.9
7320,192.5
7323,145.3
7324,149.7
7326,211.9
7327,199.0
7329,219.5
7331,194.9
7332,197.7
7334,156.1
7336,136.8
7337,180.1
7340,200.4
7341,150.3
7342,188.5
7347,202.9
7348,181.6
7349,167.7
7350,171.7
7351,181.1
7353,215.0
7355,148.5
7358,173.6
7359,159.6
7361,157.4
7362,201.3
7364,153.5
7368,211.3
7369,142.5
7370,191.4
7371,197.8
7373,142.0
7376,170.1
7383,189.8
7384,162.4
7387,149.7
7391,176.7
7394,207.1
7395,163.4
7396,181.3
7397,147.9
7399,136.8
7400,218.6
7402,155.4
7403,140.2
7405,172.2
7411,147.1
7412,207.5
7413,157.1
7415,217.3
7417,213.2
7418,146.9
7419,147.4
7420,205.0
7421,213.9
7422,203.9
7423,147.2
7424,136.8
7426,183.3
7430,152.0
7432,202.3
7433,210.9
7436,126.5
7437,205.9
7448,205.7
7449,165.1
7453,185.1
7454,173.1
7456,183.9
7461,157.4
7462,206.9
7464,214.7
7465,214.2
7466,158.8
7468,176.8
7469,151.6
7472,192.3
7474,142.0
7478,149.5
7483,190.0
7486,149.7
7487,215.7
7490,142.2
7491,152.1
7497,153.7
7498,139.4
7501,177.7
7507,206.2
7509,144.5
7510,196.7
7511,149.7
7513,203.7
7514,218.3
7518,165.3
7519,161.8
7524,147.1
7527,204.0
7528,183.4
7531,191.0
7533,144.5
7535,211.1
7536,136.8
7542,162.4
7543,177.3
7544,175.7
7546,165.8
7548,167.7
7552,160.8
7556,190.2
7558,175.6
7560,179.7
7561,152.2
7564,165.1
7565,187.5
7569,146.2
7573,136.8
7574,205.5
7577,209.2
7578,183.3
7581,194.8
7583,207.4
7584,199.9
7585,177.0
7586,154.8
7587,145.3
7588,186.7
7591,165.6
7592,188.2
7593,184.6
7594,164.2
7597,180.8
7598,188.7
7599,147.1
7600,197.0
7602,171.2
7604,172.4
7607,184.0
7609,180.4
7610,184.0
7611,149.7
7612,175.5
7615,156.4
7617,141.8
7620,152.4
7621,141.4
7623,139.4
7624,178.3
7627,146.3
7628,159.0
7632,171.9
7635,126.5
7637,148.7
7638,149.2
7639,190.5
7640,193.4
7641,142.2
7642,208.0
7643,199.1
7645,183.8
7648,204.6
7649,160.0
7650,148.0
7651,214.3
7652,191.8
7655,183.2
7657,191.5
7658,207.8
7661,154.8
7662,202.7
7663,147.9
7664,201.4
7667,205.2
7668,142.1
7669,206.2
7672,140.6
7673,142.0
7675,172.1
7677,197.2
7678,208.0
7679,187.7
7684,209.8
7686,160.0
7687,143.8
7688,186.9
7689,157.6
7692,202.3
7693,187.2
7694,151.5
7695,184.3
7696,211.5
7697,157.9
7698,147.1
7700,212.4
7701,180.9
7702,214.4
7703,174.9
7706,164.3
7708,212.2
7710,144.5
7712,213.7
7714,159.4
7717,165.3
7718,173.7
7719,166.2
7723,180.9
7724,136.8
7727,173.1
7731,181.5
7732,198.4
7735,158.0
7736,134.2
7737,218.0
7739,167.1
7740,195.2
7742,141.1
7744,178.9
7745,158.9
7746,148.1
7748,167.7
7749,153.7
7752,204.4
7756,211.9
7757,157.4
7760,152.2
7761,165.8
7762,167.2
7764,143.4
7766,207.5
7768,165.5
7770,194.1
7771,142.6
7773,134.2
7775,150.2
7779,147.5
7780,178.3
7785,188.3
7786,157.4
7788,210.2
7790,157.8
7791,161.9
7794,205.8
7795,161.1
7796,164.9
7797,218.5
7798,152.2
7799,183.0
7801,148.4
7802,146.1
7804,145.1
7805,211.0
7806,216.1
7808,192.1
7809,196.1
7810,200.2
7811,149.7
7816,214.9
7823,139.4
7826,218.2
7828,203.5
7830,208.1
7832,155.9
7834,182.9
7835,129.1
7841,175.5
7844,165.9
7846,200.0
7848,160.0
7849,205.5
7853,202.1
7854,188.1
7856,199.5
7857,186.6
7861,154.8
7863,175.0
7865,209.8
7867,189.4
7868,183.0
7870,209.9
7873,144.5
7875,151.4
7876,191.1
7877,164.2
7879,202.2
7883,161.4
7884,174.1
7885,167.7
7887,163.4
7893,173.0
7898,154.8
7899,177.8
7900,204.8
7901,142.0
7904,200.9
7905,158.6
7906,201.8
7908,198.1
7910,144.5
7911,174.2
7913,163.9
7914,141.7
7915,174.6
7916,215.0
7917,189.1
7918,178.4
7919,200.7
7920,180.5
7922,156.7
7923,139.4
7925,149.5
7927,186.6
7930,179.9
7932,176.2
7934,213.4
7935,188.1
7936,131.7
7938,196.3
7943,151.8
7944,175.1
7948,165.1
7949,148.4
7951,171.5
7952,184.8
7953,199.4
7954,196.9
7955,150.9
7958,206.4
7960,149.7
7962,166.5
7963,169.5
7964,196.4
7972,134.2
7973,164.3
7974,153.1
7976,205.7
7979,158.1
7980,164.0
7986,162.5
7987,170.1
7988,219.4
7989,169.8
7990,184.0
7991,190.1
7993,160.3
7995,159.8
7996,174.6
7997,171.1
7998,154.8
8001,215.7
8010,144.5
8011,212.8
8012,164.0
8013,203.6
8015,207.7
8018,196.7
8019,171.1
8021,198.2
8022,167.6
8023,144.5
8025,190.6
8028,168.5
8031,162.7
8032,146.6
8033,190.2
8035,136.8
8038,161.4
8040,214.6
8042,214.3
8044,149.2
8045,145.1
8046,140.2
8047,141.1
8048,154.8
8049,152.9
8050,153.2
8051,181.1
8053,147.5
8055,185.2
8056,145.7
8059,206.7
8060,154.8
8062,162.9
8063,219.9
8064,158.2
8065,201.1
8067,207.0
8071,193.4
8073,142.0
8079,170.9
8080,211.1
8081,196.4
8082,160.4
8083,185.0
8085,175.4
8090,195.5
8091,204.9
8092,163.0
8093,198.9
8094,150.3
8095,204.8
8097,160.0
8098,208.8
8099,182.9
8100,163.1
8104,191.0
8105,159.3
8107,156.1
8110,147.1
8111,214.7
8114,205.0
8115,174.0
8117,208.2
8123,144.5
8126,167.8
8127,214.6
8130,142.4
8133,198.1
8134,186.8
8135,134.2
8136,196.6
8137,155.0
8139,184.6
8140,155.1
8144,170.2
8147,157.4
8150,176.8
8151,188.0
8152,170.2
8153,173.2
8155,174.8
8160,144.5
8162,146.2
8166,151.2
8168,165.1
8170,171.5
8171,159.2
8172,134.2
8173,153.9
8174,216.0
8177,142.6
8178,203.5
8182,207.1
8184,150.7
8185,167.7
8187,195.9
8189,157.6
8190,189.1
8193,183.5
8194,145.8
8198,152.2
8200,219.1
8202,198.0
8208,217.8
8210,136.8
8211,184.3
8215,211.3
8216,179.1
8220,189.4
8221,141.3
8222,144.5
8223,177.9
8224,176.2
8227,145.8
8229,152.0
8231,164.4
8233,205.1
8234,149.6
8235,139.4
8239,163.5
8240,189.3
8242,156.9
8245,202.1
8247,168.0
8248,154.8
8250,176.6
8251,208.1
8255,212.6
8257,174.7
8258,164.6
8260,139.4
8261,209.5
8262,170.2
8266,144.2
8268,184.0
8269,159.7
8270,200.1
8271,170.4
8272,134.2
8273,145.3
8274,186.8
8276,200.0
8278,198.8
8280,191.4
8282,211.5
8285,165.1
8286,190.7
8288,168.5
8289,200.6
8290,191.1
8293,178.9
8294,175.1
8297,160.0
8298,208.1
8300,161.0
8302,147.4
8304,188.6
8308,142.1
8309,144.5
8310,214.2
8312,217.5
8314,213.5
8315,183.8
8316,140.2
8317,154.3
8321,204.1
8322,167.5
8323,152.2
8326,198.3
8327,218.3
8329,206.5
8333,202.5
8335,136.8
8337,161.7
8341,163.1
8343,194.7
8344,210.0
8346,171.9
8347,147.1
8348,151.3
8349,182.7
8350,182.9
8353,185.8
8359,139.4
8367,164.1
8369,200.4
8372,131.7
8373,216.5
8374,145.3
8375,214.0
8376,162.1
8377,198.5
8379,195.7
8380,169.9
8381,178.6
8382,186.4
8385,162.5
8386,155.8
8388,168.6
8389,149.2
8392,195.7
8393,187.1
8397,147.1
8399,182.1
8400,177.3
8403,205.9
8404,157.1
8405,150.7
8406,195.1
8407,163.2
8409,186.7
8410,129.1
8411,162.8
8412,175.3
8413,192.1
8414,174.0
8415,181.1
8417,144.1
8418,182.3
8420,169.9
8422,147.1
8423,144.1
8427,148.0
8428,195.7
8429,178.4
8434,144.5
8435,159.5
8437,165.0
8438,186.6
8439,166.0
8440,215.1
8443,160.0
8445,174.7
8446,182.8
8448,149.7
8449,153.7
8450,148.3
8451,204.0
8453,178.9
8455,183.9
8457,183.9
8458,147.8
8459,189.2
8460,139.4
8461,172.4
8463,182.0
8465,173.9
8466,150.3
8467,200.9
8468,207.1
8469,172.5
8470,183.8
8472,123.9
8474,207.0
8478,151.4
8479,174.2
8480,186.3
8481,155.8
8484,160.0
8489,214.0
8491,197.7
8494,169.8
8496,161.1
8497,162.5
8501,196.5
8502,155.7
8504,172.3
8506,144.2
8508,155.6
8509,147.1
8511,154.8
8513,180.2
8518,209.9
8519,218.1
8520,195.3
8522,165.1
8524,166.8
8525,195.6
8526,194.0
8530,213.2
8534,151.0
8535,147.1
8537,163.1
8540,147.6
8541,163.1
8543,152.3
8544,172.3
8545,178.4
8547,144.5
8549,148.2
8552,146.0
8553,165.6
8557,187.1
8558,151.3
8559,134.2
8560,147.6
8562,208.8
8563,174.0
8564,160.0
8565,207.9
8566,181.5
8569,150.3
8571,129.1
8572,208.2
8575,162.2
8579,142.5
8583,165.6
8585,162.5
8586,209.5
8589,187.0
8591,154.7
8592,154.1
8597,149.7
8598,169.8
8599,151.2
8601,142.2
8604,216.9
8608,199.1
8609,131.7
8612,200.6
8613,208.0
8615,149.1
8618,156.6
8619,182.7
8622,157.4
8623,156.7
8624,186.1
8628,155.4
8632,191.3
8634,147.1
8635,169.1
8636,181.4
8638,216.4
8640,149.3
8641,157.2
8642,159.5
8645,187.8
8646,166.8
8647,147.1
8652,208.8
8653,194.3
8654,166.7
8656,157.3
8659,142.0
8663,154.9
8666,172.0
8667,201.8
8668,163.8
8669,175.4
8671,203.4
8672,131.7
8676,153.9
8679,186.7
8684,157.4
8687,174.4
8688,155.5
8693,153.9
8695,144.4
8696,147.1
8698,204.8
8700,216.1
8705,159.8
8706,200.0
8707,190.9
8709,139.4
8710,177.9
8711,212.4
8712,205.7
8715,162.1
8718,185.8
8719,191.0
8721,168.8
8722,170.2
8724,189.7
8725,206.4
8728,168.5
8729,206.8
8730,147.4
8731,195.1
8734,157.4
8735,219.8
8736,218.5
8738,172.3
8745,205.1
8747,149.7
8752,185.0
8754,145.3
8757,179.0
8758,211.8
8759,139.4
8762,216.8
8763,169.6
8771,129.1
8773,159.7
8774,191.2
8776,144.8
8777,213.3
8778,173.3
8782,148.4
8784,160.0
8785,177.8
8787,219.4
8788,157.5
8791,172.3
8792,186.5
8793,169.7
8795,163.1
8796,175.3
8797,152.2
8801,219.4
8803,161.7
8808,201.2
8809,134.2
8810,174.7
8811,165.4
8813,158.7
8814,156.7
8815,186.4
8818,195.2
8821,160.0
8822,214.1
8824,150.2
8826,190.7
8828,201.3
8829,184.1
8831,167.1
8834,149.7
8835,160.0
8836,163.2
8838,210.2
8840,196.6
8842,219.2
8844,179.5
8847,139.4
8849,187.4
8851,163.8
8852,167.1
8855,146.5
8857,191.3
8859,139.4
8860,209.1
8861,195.8
8862,173.5
8863,155.7
8864,190.0
8868,214.5
8869,165.9
8871,136.8
8873,157.0
8874,192.7
8875,172.9
8876,166.3
8881,199.9
8882,159.7
8884,160.0
8885,186.2
8886,173.0
8890,148.1
8891,198.5
8893,151.8
8895,185.2
8896,147.1
8897,187.2
8898,158.9
8899,188.7
8900,211.2
8902,183.7
8904,192.6
8905,173.2
8908,131.7
8910,168.4
8913,158.0
8914,215.7
8922,162.5
8924,146.7
8925,171.5
8926,202.5
8928,192.5
8931,195.6
8934,165.1
8935,147.1
8939,159.6
8942,179.8
8944,156.7
8945,150.5
8946,152.2
8947,144.7
8958,149.7
8961,195.3
8962,202.0
8963,201.9
8971,136.8
8973,215.4
8974,161.9
8976,189.1
8977,205.2
8981,216.7
8984,152.2
8987,212.3
8988,141.5
8989,211.7
8992,170.9
8993,162.0
8995,156.6
8996,142.0
8998,150.5
8999,149.8
9001,162.8
9002,202.7
9006,187.4
9007,163.8
9009,136.8
9010,201.9
9011,171.7
9013,165.9
9014,162.2
9015,151.5
9017,186.3
9019,206.5
9021,170.2
9022,153.2
9023,207.4
9024,163.7
9026,200.1
9027,156.4
9028,205.3
9029,187.8
9031,176.8
9033,152.2
9035,199.8
9040,186.8
9043,204.5
9044,190.4
9047,136.8
9048,164.0
9049,157.2
9051,205.7
9052,161.0
9055,207.7
9056,146.4
9057,193.4
9059,144.5
9060,154.5
9062,173.1
9071,139.4
9073,212.9
9074,197.5
9078,185.4
9079,147.1
9080,172.8
9083,154.8
9084,219.2
9085,142.0
9088,194.6
9089,184.1
9090,157.5
9091,157.7
9092,148.9
9094,148.4
9095,171.2
9096,147.1
9097,153.6
9098,202.8
9103,185.7
9104,149.1
9105,202.1
9106,159.8
9108,131.7
9110,188.1
9113,198.5
9120,142.7
9121,162.5
9122,200.3
9124,155.6
9125,158.5
9126,217.8
9127,157.2
9128,213.4
9129,173.5
9130,178.6
9131,204.0
9132,216.6
9134,152.2
9140,161.9
9145,203.6
9146,147.1
9150,162.5
9151,206.0
9153,183.6
9158,160.0
9160,195.3
9161,147.1
9163,145.0
9164,145.7
9169,174.7
9170,142.0
9171,188.0
9172,143.0
9174,219.5
9175,212.7
9183,147.3
9184,149.7
9185,172.0
9186,218.0
9187,186.3
9189,196.8
9190,193.0
9192,146.6
9193,142.0
9194,207.9
9196,136.8
9198,192.5
9199,213.8
9200,211.5
9202,143.1
9203,182.4
9206,206.5
9208,123.9
9210,173.4
9214,173.4
9217,149.5
9218,213.3
9220,219.9
9221,160.0
9223,199.8
9224,145.8
9229,189.7
9230,143.2
9233,152.2
9235,163.4
9236,149.8
9237,207.7
9238,156.0
9240,180.2
9241,199.4
9242,166.3
9243,184.3
9244,211.1
9246,131.7
9250,219.7
9256,156.8
9257,155.8
9258,174.0
9259,147.1
9260,195.6
9262,185.2
9265,193.7
9269,178.9
9270,215.1
9271,147.1
9272,187.3
9274,156.4
9277,183.5
9278,144.7
9279,165.9
9280,178.4
9282,208.4
9283,154.8
9284,210.7
9285,203.3
9287,149.3
9292,210.2
9293,202.6
9294,147.8
9295,144.5
9300,194.5
9302,214.1
9304,205.4
9305,219.7
9307,164.3
9308,131.7
9313,177.1
9315,209.4
9316,152.9
9317,214.6
9318,184.5
9319,192.4
9320,163.1
9321,162.5
9324,149.5
9325,207.2
9326,176.8
9329,190.6
9332,165.4
9333,149.7
9335,212.7
9336,214.7
9337,146.0
9339,214.4
9340,157.1
9341,174.9
9342,207.9
9346,136.8
9347,169.5
9351,170.4
9353,208.8
9354,155.0
9358,157.4
9359,145.7
9360,184.3
9361,217.1
9363,143.0
9364,191.0
9366,164.1
9369,217.7
9370,144.5
9371,192.6
9373,170.3
9379,202.6
9383,149.7
9386,219.9
9388,153.5
9390,191.3
9394,149.5
9395,162.7
9396,136.8
9398,143.8
9399,196.8
9400,146.6
9403,166.8
9404,166.5
9406,172.9
9408,129.1
9409,193.1
9411,217.3
9412,154.8
9413,145.3
9414,183.8
9415,205.1
9417,167.0
9419,219.9
9420,160.0
9421,154.0
9423,192.5
9432,199.2
9433,154.8
9434,211.5
9435,140.2
9436,190.6
9438,162.6
9441,197.7
9442,145.2
9443,196.6
9445,186.7
9446,139.4
9447,187.8
9448,189.1
9449,181.6
9453,213.2
9456,168.7
9457,171.2
9458,162.5
9460,162.6
9461,185.6
9464,216.0
9465,157.7
9467,144.7
9468,169.5
9470,147.1
9471,187.3
9472,190.3
9473,198.4
9478,174.6
9481,167.8
9483,147.1
9485,193.1
9487,172.2
9488,169.2
9489,202.3
9490,163.7
9491,151.7
9494,219.2
9495,144.5
9499,175.9
9500,198.0
9502,176.5
9506,171.2
9507,134.2
9508,150.7
9512,192.3
9515,172.4
9516,142.1
9517,170.6
9518,140.6
9521,162.5
9522,141.8
9526,143.4
9527,163.5
9528,219.9
9529,213.7
9530,148.9
9532,157.8
9533,147.1
9535,218.9
9536,170.2
9540,191.9
9543,216.9
9545,129.1
9549,208.9
9551,160.9
9555,203.0
9557,181.0
9558,160.0
9559,202.2
9560,148.2
9564,140.4
9567,217.5
9569,218.4
9570,152.2
9573,172.9
9577,183.3
9578,144.7
9581,161.8
9582,217.8
9583,142.0
9584,200.8
9585,178.9
9587,182.9
9591,140.6
9592,172.6
9595,139.4
9597,155.4
9598,197.6
9599,149.7
9600,209.6
9602,192.8
9606,151.2
9607,151.4
9608,136.8
9609,151.8
9614,154.0
9615,152.4
9618,141.1
9620,160.0
9621,162.2
9622,166.1
9624,152.4
9625,155.4
9628,220.0
9630,187.3
9631,163.8
9632,149.7
9640,140.1
9642,147.4
9646,142.0
9650,198.1
9651,184.3
9652,176.2
9654,204.2
9656,158.3
9658,170.2
9659,211.2
9660,148.1
9665,149.2
9668,159.7
9669,193.4
9670,154.8
9676,206.1
9677,215.7
9680,165.2
9681,165.5
9682,139.4
9683,202.4
9684,175.4
9685,151.6
9686,201.3
9687,182.4
9688,150.5
9689,206.1
9690,203.3
9692,174.9
9695,139.4
9698,149.4
9699,196.0
9700,193.2
9705,216.5
9706,184.5
9707,134.2
9712,143.3
9714,200.7
9715,181.9
9716,142.3
9717,214.1
9718,141.4
9719,145.8
9720,160.0
9721,211.6
9724,148.2
9727,163.0
9732,209.3
9733,144.5
9735,215.5
9736,159.4
9737,146.2
9738,166.6
9740,200.7
9741,202.9
9742,180.8
9743,212.5
9745,126.5
9750,214.4
9752,161.0
9757,160.0
9761,177.6
9764,172.8
9766,176.3
9767,198.6
9768,190.3
9769,154.8
9770,184.0
9772,154.0
9774,191.3
9775,193.9
9777,214.1
9779,157.9
9781,170.8
9783,144.5
9786,200.5
9787,179.8
9789,213.0
9791,191.4
9792,217.4
9793,193.9
9794,158.2
9795,144.5
9796,184.7
9797,201.8
9798,193.4
9799,147.8
9801,205.9
9803,189.6
9807,131.7
9808,212.4
9810,175.6
9811,214.5
9812,212.3
9814,205.8
9815,172.2
9816,186.1
9817,165.5
9819,166.6
9820,149.7
9823,165.9
9825,167.6
9826,179.4
9828,169.8
9831,185.8
9832,136.8
9833,195.8
9834,141.7
9839,200.8
9840,154.9
9841,211.6
9845,134.2
9846,140.1
9848,173.5
9853,217.2
9854,185.3
9855,143.9
9856,163.8
9858,165.1
9859,211.5
9861,181.6
9864,204.1
9865,174.3
9866,170.2
9868,198.2
9870,154.8
9872,171.1
9875,173.6
9876,159.2
9877,176.2
9878,161.9
9882,136.8
9885,175.5
9886,143.5
9888,171.9
9889,151.5
9891,173.1
9892,214.1
9894,144.5
9899,173.5
9901,184.8
9904,163.9
9907,134.2
9909,211.9
9910,144.7
9911,168.6
9914,190.8
9916,181.0
9917,155.6
9919,197.8
9920,152.2
9921,189.3
9925,152.9
9929,189.0
9932,144.5
9933,171.8
9934,161.5
9936,176.8
9939,207.0
9940,208.8
9941,154.4
9943,204.2
9944,204.9
9945,131.7
9950,182.5
9956,194.0
9957,165.1
9958,159.2
9959,151.3
9960,160.0
9964,157.0
9965,181.0
9966,201.3
9968,161.9
9969,154.8
9971,176.3
9972,150.1
9975,148.8
9976,166.5
9977,159.7
9978,209.8
9979,188.0
9980,166.2
9981,167.0
9982,142.0
9985,176.7
9986,207.7
9987,186.8
9988,142.3
9989,153.9
9991,179.9
9992,204.7
9993,141.2
9995,154.8
9999,162.2
10000,169.5
10002,144.9
10003,219.7
10006,157.0
10007,142.0
10009,192.6
10010,189.6
10012,167.0
10015,188.0
10016,168.7
10017,214.5
10020,142.0
10021,207.9
10022,165.8
10023,183.0
10024,204.8
10030,182.0
10032,158.1
10034,142.0
10035,162.4
10037,212.9
10040,151.2
10041,174.8
10043,154.7
10044,210.5
10048,152.2
10050,189.4
10051,147.3
10052,152.6
10053,178.8
10054,216.1
10055,188.0
10061,142.0
10062,206.3
10075,154.8
10079,142.1
10080,147.0
10081,177.1
10082,214.2
10085,154.1
10086,149.5
10087,194.8
10088,152.2
10089,187.2
10090,212.0
10091,170.6
10092,156.8
10094,208.7
10095,206.7
10097,171.7
10098,218.9
10099,205.6
10101,136.8
10102,200.1
10104,217.7
10107,149.7
10108,158.5
10109,152.6
10110,143.6
10112,182.5
10113,215.0
10114,168.7
10116,162.5
10117,154.8
10118,143.6
10121,147.6
10123,186.8
10124,148.5
10128,159.1
10129,152.2
10130,159.5
10136,169.9
10138,158.1
10139,188.3
10140,146.8
10142,129.1
10143,144.9
10144,144.7
10145,141.7
10147,196.7
10149,191.8
10154,174.4
10155,170.1
10156,154.8
10157,154.7
10158,167.2
10159,197.2
10161,194.2
10164,196.0
10165,145.1
10169,144.5
10171,199.2
10175,168.3
10176,188.0
10177,140.2
10178,176.0
10180,219.8
10181,205.0
10182,151.4
10183,129.1
10186,140.0
10187,203.5
10188,167.5
10193,204.3
10194,157.4
10195,199.4
10196,162.5
10198,146.6
10200,170.8
10205,190.2
10208,177.2
10209,202.5
10210,144.5
10212,201.5
10215,162.8
10217,170.1
10218,175.3
10219,163.0
10220,159.6
10221,141.0
10223,123.9
10224,199.2
10227,189.2
10229,215.6
10232,168.2
10236,160.0
10237,194.2
10238,195.9
10240,148.4
10241,146.4
10244,176.1
10247,179.9
10248,217.5
10249,196.9
10250,167.2
10251,147.1
10254,167.6
10255,192.7
10258,191.8
10259,200.8
10263,145.4
10264,136.8
10265,142.1
10267,186.0
10271,184.3
10273,205.7
10276,191.8
10277,160.0
10279,178.1
10280,144.4
10284,193.0
10285,203.8
10287,190.0
10290,152.5
10291,139.4
10293,159.7
10294,194.0
10298,171.3
10299,190.1
10301,194.4
10302,175.3
10304,131.7
10305,170.9
10309,206.1
10310,190.6
10316,156.4
10317,159.7
10318,157.4
10319,152.1
10320,194.7
10321,149.8
10323,168.5
10324,152.4
10332,144.5
10333,209.5
10334,170.3
10338,190.9
10340,197.6
10341,191.8
10343,169.4
10344,157.7
10345,136.8
10346,179.8
10348,146.7
10349,207.7
10350,188.5
10355,155.4
10357,143.2
10358,147.1
10361,215.1
10368,159.6
10371,206.4
10372,147.1
10374,201.8
10377,159.7
10381,200.2
10382,185.2
10384,195.8
10385,209.9
10386,152.2
10387,196.2
10389,145.9
10390,151.5
10392,175.0
10394,188.0
10395,190.1
10398,208.1
10399,152.2
10402,170.4
10403,156.7
10405,217.7
10406,200.4
10409,182.8
10410,160.6
10411,179.3
10413,160.0
10415,184.3
10417,204.1
10419,179.8
10421,167.4
10422,145.7
10423,218.8
10424,211.6
10425,213.5
10426,154.8
10430,151.2
10433,147.5
10438,202.3
10439,139.4
10440,193.4
10442,142.4
10443,171.0
10446,168.2
10447,196.0
10449,171.4
10450,154.7
10451,175.6
10452,203.4
10453,157.6
10454,162.5
10455,211.0
10457,145.1
10458,151.6
10459,154.6
10461,162.4
10466,215.4
10467,165.1
10469,157.6
10476,204.6
10478,159.9
10479,216.0
10480,147.1
10482,169.2
10485,171.4
10492,214.4
10493,170.2
10494,170.9
10496,177.5
10498,172.9
10501,182.3
10503,180.9
10505,187.1
10506,152.8
10507,157.4
10511,162.3
10512,204.2
10513,163.0
10514,169.4
10515,149.6
10516,164.5
10518,190.0
10520,165.2
10521,139.4
10523,216.7
10526,186.3
10527,217.7
10529,173.5
10530,170.6
10531,214.3
10534,170.2
10535,208.7
10536,151.4
10537,193.8
10539,209.3
10540,201.3
10541,200.1
10543,210.1
10544,196.9
10548,157.4
10549,154.3
10550,215.6
10553,199.2
10554,196.2
10555,189.1
10557,186.7
10558,157.2
10559,194.8
10560,161.5
10561,134.2
10564,151.1
10566,150.5
10567,148.8
10569,175.0
10571,202.6
10575,162.5
10576,169.7
10577,140.3
10579,151.8
10580,155.7
10581,211.4
10582,176.9
10583,218.7
10585,195.2
10588,208.4
10589,149.7
10597,193.5
10599,195.9
10600,162.9
10601,167.6
10602,136.8
10603,179.4
10604,185.4
10608,208.6
10612,151.0
10615,165.1
10618,149.3
10619,181.6
10621,195.8
10622,144.2
10623,141.9
10624,158.4
10625,188.9
10626,150.7
10627,163.4
10629,147.1
10630,184.4
10632,207.3
10635,215.5
10638,215.8
10640,201.9
10641,155.4
10642,191.6
10643,131.7
10644,210.5
10645,195.5
10646,214.1
10647,195.9
10648,161.6
10649,145.1
10650,213.8
10651,179.1
10655,201.3
10656,154.8
10660,175.6
10662,171.6
10664,172.6
10666,157.6
10667,151.2
10668,209.0
10670,136.8
10673,218.4
10676,181.6
10678,156.0
10682,149.0
10683,139.4
10688,219.1
10691,210.7
10692,206.0
10693,142.2
10695,215.9
10696,157.4
10702,143.9
10703,211.0
10704,194.1
10705,163.4
10707,213.4
10711,142.0
10712,150.1
10714,205.4
10715,201.9
10716,209.6
10722,156.3
10723,219.4
10724,136.8
10725,157.0
10726,207.9
10728,194.1
10730,170.5
10732,215.8
10733,180.8
10734,215.1
10737,144.5
10739,195.3
10740,188.4
10741,179.9
10742,199.2
10743,146.9
10746,156.5
10747,140.7
10750,149.7
10752,166.8
10754,194.2
10757,188.5
10758,162.9
10759,174.8
10761,213.3
10764,152.2
10765,150.6
10766,185.0
10767,169.6
10771,173.5
10772,185.5
10773,206.7
10776,149.1
10778,144.5
10779,155.0
10780,160.9
10782,169.6
10788,209.4
10791,157.4
10794,212.6
10796,214.4
10797,169.9
10798,206.0
10800,217.5
10802,210.0
10805,157.4
10806,146.2
10808,211.9
10810,163.3
10812,148.8
10815,167.6
10816,212.0
10818,147.1
10819,197.2
10820,211.6
10821,191.4
10824,183.3
10825,143.9
10829,216.1
10831,170.2
10833,198.7
10837,186.2
10841,200.6
10843,198.8
10846,162.5
10848,162.9
10851,191.0
10854,144.9
10858,144.9
10859,139.4
10865,159.4
10866,167.9
10867,170.8
10868,180.7
10869,146.1
10870,157.1
10871,166.4
10872,167.7
10875,181.8
10880,192.4
10883,162.0
10884,191.7
10885,178.2
10886,157.4
10888,176.6
10889,168.2
10890,144.0
10891,143.4
10892,191.1
10893,148.2
10896,172.3
10897,214.5
10898,170.5
10899,142.0
10900,175.8
10902,179.0
10907,205.3
10910,183.9
10912,142.9
10913,175.4
10914,217.0
10915,188.7
10917,152.4
10918,177.0
10920,213.0
10921,148.2
10923,211.8
10924,182.2
10927,154.8
10929,184.7
10932,196.3
10934,178.7
10937,148.2
10940,134.2
10942,147.5
10945,169.3
10946,214.2
10952,173.9
10953,165.1
10956,203.9
10957,218.2
10959,149.0
10960,185.5
10961,177.6
10962,206.5
10963,175.1
10964,186.3
10965,197.0
10967,149.7
10975,156.2
10976,155.9
10979,173.1
10981,139.4
10982,178.1
10984,143.3
10985,165.7
10987,142.2
10991,217.6
10992,182.9
10993,170.0
10994,165.1
10996,160.4
10998,191.5
11000,145.4
11001,167.8
11002,166.2
11007,196.4
11008,144.5
11009,183.6
11013,159.8
11015,216.1
11018,219.0
11020,186.3
11021,131.7
11022,187.5
11023,200.9
11024,153.0
11028,152.7
11029,172.0
11032,151.4
11033,177.4
11034,157.4
11036,202.1
11037,178.6
11038,184.8
11039,145.3
11042,166.4
11048,144.5
11049,205.2
11052,214.3
11053,174.2
11054,178.8
11055,209.5
11057,140.3
11061,210.0
11062,147.1
11066,156.2
11068,152.1
11070,181.2
11072,156.4
11075,154.8
11079,212.1
11080,177.0
11081,178.3
11084,170.7
11086,187.4
11087,204.9
11088,147.1
11091,157.8
11093,165.3
11094,191.0
11095,204.9
11097,196.8
11098,153.2
11102,147.1
11103,150.1
11104,181.4
11105,215.5
11106,174.1
11113,217.5
11114,140.4
11115,183.5
11116,160.0
11117,205.5
11118,215.3
11119,140.6
11123,213.3
11127,213.9
11129,165.1
11131,150.0
11135,197.8
11140,140.6
11142,176.5
11143,154.8
11145,206.3
11146,184.4
11151,197.2
11155,153.4
11156,144.5
11161,178.7
11164,178.0
11166,176.5
11169,162.5
11171,199.8
11174,200.5
11175,149.7
11179,200.8
11180,163.4
11182,165.5
11184,165.1
11187,195.5
11188,178.5
11189,180.3
11190,171.2
11191,140.1
11192,188.2
11193,140.7
11194,212.6
11196,151.7
11197,149.7
11198,143.8
11201,151.3
11202,208.6
11203,151.3
11206,163.6
11208,163.2
11210,172.8
11214,157.3
11216,194.2
11219,144.1
11220,199.1
11221,178.7
11222,205.7
11223,193.0
11224,165.1
11225,218.8
11226,147.5
11228,189.5
11229,214.2
11230,196.9
11232,174.2
11236,149.6
11237,144.5
11238,186.4
11239,190.5
11242,148.7
11243,169.2
11244,188.8
11247,168.0
11251,175.4
11253,171.9
11255,201.6
11258,172.5
11260,143.3
11263,188.8
11265,165.1
11266,194.5
11268,181.9
11270,158.8
11272,163.0
11276,161.3
11277,141.4
11278,147.1
11280,197.1
11281,152.2
11284,214.9
11285,207.2
11286,215.6
11287,218.9
11288,170.4
11290,197.0
11291,172.8
11292,155.7
11293,176.7
11296,156.0
11304,154.8
11307,195.6
11308,150.2
11317,147.1
11318,146.1
11319,139.4
11320,160.7
11322,218.7
11326,196.3
11330,176.7
11332,170.2
11334,168.9
11337,162.8
11339,193.7
11340,173.7
11343,201.0
11344,166.8
11345,157.4
11347,203.1
11348,186.9
11349,146.6
11350,215.6
11351,143.0
11354,196.2
11355,143.5
11357,171.8
11358,206.3
11359,139.4
11360,152.1
11361,140.7
11362,180.3
11364,150.8
11366,167.9
11367,185.7
11368,156.7
11370,160.9
11372,162.5
11380,177.5
11382,166.9
11385,176.5
11386,147.1
11387,184.5
11390,208.3
11393,157.7
11394,163.1
11396,180.0
11398,156.6
11399,179.4
11400,139.4
11405,147.1
11406,155.0
11408,162.7
11413,162.5
11416,172.2
11417,185.6
11422,205.5
11423,170.8
11424,217.6
11425,196.9
11426,149.7
11427,213.9
11429,218.8
11431,171.0
11433,162.7
11434,206.5
11436,205.0
11438,141.8
11441,147.1
11442,156.6
11443,215.4
11445,216.0
11446,195.4
11448,205.4
11450,172.6
11454,157.4
11455,169.2
11457,202.3
11459,151.4
11462,171.4
11464,166.6
11467,152.2
11469,208.7
11471,187.4
11472,153.3
11473,197.6
11474,193.6
11475,163.2
11480,143.2
11481,152.2
11484,142.8
11485,210.4
11486,194.0
11491,151.3
11492,183.7
11494,147.1
11495,193.1
11496,146.9
11498,193.3
11501,170.2
11503,141.4
11504,146.9
11505,141.9
11506,201.3
11507,162.4
11508,154.8
11511,205.9
11516,179.6
11517,149.2
11518,216.3
11522,154.8
11533,156.2
11535,142.0
11536,144.6
11537,191.6
11538,198.0
11539,219.1
11540,165.6
11541,173.7
11544,192.4
11545,157.4
11546,187.9
11547,201.0
11548,170.2
11550,211.7
11552,204.9
11554,147.2
11555,144.7
11556,197.8
11559,187.1
11561,170.2
11563,182.1
11566,187.6
11568,158.8
11570,184.2
11573,181.7
11574,198.2
11576,144.5
11578,204.8
11580,164.8
11583,205.9
11584,217.4
11586,153.9
11589,172.8
11590,191.5
11591,215.9
11594,166.9
11596,216.1
11598,145.2
11599,183.5
11600,215.5
11601,200.5
11602,162.5
11604,190.0
11605,144.0
11607,199.2
11608,143.9
11610,161.0
11611,157.7
11612,175.5
11613,174.0
11614,159.4
11615,173.4
11616,147.1
11619,153.6
11621,213.3
11624,142.0
11627,203.1
11628,146.6
11629,178.0
11636,218.8
11637,194.0
11638,174.3
11639,145.3
11640,208.2
11641,209.2
11642,185.8
11643,160.0
11644,202.4
11646,211.5
11647,218.5
11648,201.5
11655,207.7
11656,209.7
11657,139.4
11658,212.9
11663,157.6
11664,219.5
11667,209.1
11670,172.8
11673,147.1
11674,218.4
11675,194.5
11677,215.8
11678,193.9
11682,199.3
11683,160.0
11689,140.7
11691,189.0
11692,179.8
11696,156.2
11697,144.5
11698,175.8
11700,180.3
11701,218.3
11702,147.6
11703,186.8
11706,150.0
11708,164.7
11709,193.4
11710,188.5
11711,172.8
11713,177.9
11715,172.7
11716,209.1
11718,191.8
11719,200.6
11720,148.3
11723,205.0
11724,152.2
11727,174.2
11728,195.2
11733,147.9
11734,179.6
11735,171.9
11738,139.4
11739,211.8
11741,192.7
11744,183.4
11747,216.7
11748,172.7
11751,165.1
11752,158.9
11753,183.6
11755,212.5
11756,193.3
11758,142.0
11759,198.3
11760,171.7
11763,202.1
11764,152.2
11765,191.2
11767,176.8
11768,172.1
11769,187.4
11770,154.7
11774,174.6
11775,175.5
11778,206.5
11779,144.5
11781,181.2
11782,185.6
11784,195.0
11785,175.8
11787,171.8
11788,216.0
11789,219.2
11792,157.4
11797,166.0
11798,155.0
11801,213.3
11802,188.2
11803,211.4
11805,144.5
11806,183.0
11807,188.7
11818,177.1
11819,152.2
11820,186.5
11823,159.3
11825,165.4
11827,182.8
11828,150.8
11829,167.3
11832,157.4
11833,178.1
11838,177.2
11839,174.7
11840,218.0
11844,206.9
11846,162.5
11853,170.4
11855,142.0
11856,207.1
11858,213.0
11859,154.8
11864,169.5
11865,199.4
11867,142.0
11869,142.3
11870,145.8
11873,147.1
11876,196.8
11877,214.8
11878,150.0
11883,175.3
11884,211.4
11885,202.5
11886,165.1
11887,166.4
11889,184.1
11892,155.1
11893,145.6
11894,205.8
11895,187.2
11897,215.9
11899,160.0
11900,168.2
11902,171.7
11903,204.1
11904,182.8
11905,175.3
11911,191.9
11913,207.3
11914,149.7
11917,164.7
11919,174.3
11920,144.5
11922,192.1
11923,201.9
11924,140.3
11927,172.8
11928,188.3
11929,161.0
11930,187.5
11932,191.1
11933,181.8
11935,175.8
11936,206.8
11937,179.3
11938,191.2
11940,160.0
11943,219.4
11944,190.1
11945,191.4
11950,201.9
11951,187.2
11952,141.4
11954,142.0
11955,148.1
11956,210.2
11957,167.2
11958,141.1
11964,191.5
11966,171.3
11967,178.0
11968,190.0
11972,179.5
11976,153.7
11979,200.3
11980,141.8
11981,165.1
11982,192.9
11984,188.1
11986,151.9
11987,154.5
11988,158.2
11989,155.1
11990,188.4
11993,205.7
11995,144.5
11996,190.7
11997,141.3
11999,153.5
12000,143.3
12001,202.6
12004,179.9
12008,170.2
12009,155.6
12010,215.2
12011,205.0
12015,202.8
12017,212.4
12021,157.4
12022,192.1
12024,173.9
12026,160.8
12027,204.4
12029,176.1
12032,159.1
12035,147.1
12040,215.6
12042,198.8
12045,163.1
12047,142.0
12048,204.7
12049,178.0
12052,179.6
12055,202.6
12057,147.4
12058,191.4
12061,162.2
12062,160.0
12066,171.3
12067,193.1
12069,187.8
12072,212.1
12076,142.0
12078,194.3
12079,212.7
12083,160.5
12084,197.6
12089,165.1
12092,183.4
12094,179.4
12096,156.7
12098,191.7
12101,160.3
12102,149.7
12105,169.8
12108,160.4
12109,198.0
12113,162.5
12114,192.4
12116,139.4
12122,211.7
12123,218.0
12127,193.0
12130,157.4
12131,173.5
12136,214.2
12137,181.1
12138,193.3
12142,209.8
12143,142.0
12144,180.5
12145,202.9
12147,184.9
12148,208.5
12150,192.9
12153,214.1
12154,192.4
12155,215.6
12156,136.8
12157,190.4
12159,208.4
12163,206.6
12165,157.3
12167,218.3
12168,206.4
12170,147.1
12171,181.4
12173,159.2
12174,142.3
12176,193.0
12177,176.9
12179,169.2
12180,177.7
12184,147.1
12185,213.9
12187,212.1
12192,163.3
12194,152.7
12197,152.2
12199,210.7
12202,172.7
12203,204.3
12204,184.9
12209,192.6
12210,191.9
12211,152.2
12212,164.1
12215,209.7
12217,198.3
12218,219.7
12222,195.2
12224,157.4
12228,209.3
12229,142.5
12233,141.9
12235,197.9
12236,164.4
12237,162.5
12239,204.0
12240,168.9
12241,197.7
12243,187.7
12244,182.6
12245,172.1
12246,153.2
12248,205.8
12252,152.2
12255,144.1
12259,155.8
12260,153.8
12262,218.9
12264,188.3
12265,172.8
12266,155.7
12270,143.7
12273,177.4
12274,158.2
12278,172.8
12280,199.1
12282,212.6
12283,207.6
12284,187.2
12285,161.6
12288,203.1
12289,167.6
12290,190.3
12292,149.7
12293,194.9
12294,159.3
12295,214.0
12296,145.1
12297,151.0
12302,184.7
12306,172.8
12310,168.1
12311,168.3
12313,194.1
12317,195.1
12318,190.9
12319,165.1
12320,164.0
12322,167.5
12324,192.6
12330,216.8
12332,147.5
12333,144.5
12336,156.8
12339,158.2
12340,145.2
12343,212.7
12344,187.7
12345,201.7
12346,175.4
12347,194.9
12348,194.8
12350,205.9
12352,200.0
12355,189.6
12358,206.6
12359,165.1
12361,166.4
12362,146.3
12363,197.7
12364,212.5
12365,148.9
12367,159.1
12370,168.2
12372,142.3
12374,142.0
12375,219.5
12377,153.3
12379,168.6
12381,210.8
12382,205.4
12384,151.9
12386,174.7
12387,172.8
12388,194.1
12391,212.5
12394,204.5
12397,167.5
12399,195.4
12400,160.0
12402,181.9
12404,179.7
12407,182.3
12411,184.3
12412,194.2
12413,147.1
12415,167.9
12416,167.4
12417,146.4
12420,190.6
12421,174.5
12422,143.3
12427,175.4
12429,188.3
12432,212.7
12435,146.5
12436,158.6
12438,147.5
12440,178.1
12441,152.2
12443,212.2
12444,164.4
12445,206.3
12447,165.0
12448,194.7
12453,195.1
12454,139.4
12455,195.9
12456,213.9
12460,173.4
12461,177.9
12464,183.5
12465,148.6
12466,176.5
12468,162.5
12469,159.8
12470,160.0
12471,147.6
12473,207.5
12474,207.7
12475,193.4
12476,206.4
12477,170.0
12478,173.9
12481,149.7
12482,197.8
12483,209.6
12484,153.3
12485,174.0
12487,210.6
12491,153.9
12492,173.9
12493,181.1
12494,147.1
12496,182.1
12503,180.9
12504,202.7
12505,175.4
12506,152.8
12507,187.1
12509,162.5
12513,214.6
12514,173.9
12517,158.7
12519,188.3
12522,149.7
12523,174.5
12524,141.6
12526,207.5
12528,213.8
12530,187.8
12532,216.0
12534,174.9
12535,149.7
12537,179.5
12538,144.7
12544,166.8
12545,197.0
12546,197.7
12547,205.7
12548,183.2
12549,160.0
12551,213.4
12553,150.0
12557,194.2
12561,197.9
12562,167.7
12567,175.3
12569,194.1
12574,148.0
12576,160.0
12577,153.9
12582,200.8
12583,162.4
12584,158.3
12589,202.0
12590,152.2
12591,213.6
12597,182.4
12600,143.1
12602,180.2
12603,165.1
12605,208.0
12606,147.2
12611,163.3
12612,152.2
12613,151.6
12614,188.6
12616,165.1
12617,159.4
12618,163.8
12619,143.7
12620,194.4
12623,184.2
12624,202.8
12625,159.0
12626,159.7
12630,147.1
12633,150.6
12635,168.9
12638,169.7
12639,170.3
12640,154.8
12641,188.8
12642,148.8
12643,166.5
12644,170.2
12645,187.2
12646,199.9
12650,190.3
12651,155.5
12653,146.8
12654,208.1
12657,160.0
12660,156.2
12661,163.9
12664,174.9
12667,189.2
12670,139.4
12672,158.0
12673,203.6
12674,210.9
12675,194.9
12676,208.5
12679,193.2
12680,186.8
12681,178.7
12684,172.8
12685,194.3
12688,148.6
12689,141.3
12690,151.8
12691,186.8
12694,215.9
12697,165.1
12698,214.9
12701,188.4
12702,171.2
12703,202.6
12709,167.2
12711,144.5
12712,145.1
12713,176.2
12714,208.6
12715,180.7
12718,207.3
12719,151.3
12720,189.2
12724,199.5
12725,175.4
12726,198.5
12727,179.1
12728,205.6
12731,152.4
12732,147.8
12735,184.0
12736,171.8
12737,212.0
12738,154.8
12740,202.9
12742,175.4
12744,194.4
12745,174.8
12746,178.7
12748,201.8
12749,168.7
12750,185.2
12751,136.8
12752,194.6
12753,179.0
12754,175.4
12755,163.4
12758,208.0
12761,199.2
12763,207.2
12764,146.5
12765,172.8
12767,209.1
12770,144.5
12771,161.9
12772,144.1
12775,204.7
12776,154.2
12777,150.5
12778,191.7
12779,152.2
12781,199.4
12782,181.7
12787,184.8
12790,184.4
12791,142.7
12792,147.1
12796,157.0
12803,215.2
12805,191.0
12806,175.4
12807,210.4
12808,153.6
12809,165.3
12810,172.0
12813,200.9
12814,143.8
12815,191.9
12816,143.8
12817,140.7
12819,154.8
12821,202.5
12822,203.1
12824,161.9
12826,194.8
12832,147.1
12839,176.7
12840,167.8
12841,190.0
12844,182.9
12846,197.9
12847,172.8
12848,159.2
12849,173.9
12850,180.4
12851,143.6
12853,211.1
12854,206.4
12857,193.2
12858,175.7
12860,157.4
12862,145.7
12863,209.7
12864,165.1
12865,159.5
12866,162.5
12868,144.8
12869,183.6
12871,152.8
12873,147.1
12874,140.2
12876,158.8
12879,192.6
12881,153.5
12882,203.7
12886,153.9
12887,154.8
12888,201.7
12894,199.2
12895,194.8
12899,146.1
12900,152.2
12902,200.2
12906,170.9
12909,149.7
12911,202.4
12914,154.8
12918,172.9
12919,173.2
12921,140.7
12925,183.0
12927,194.1
12928,157.4
12929,194.4
12934,191.9
12935,196.1
12936,219.2
12937,199.1
12938,188.0
12940,177.3
12941,162.5
12944,180.8
12946,196.5
12948,191.8
12949,174.3
12951,154.7
12952,143.4
12954,154.8
12955,168.3
12956,146.5
12961,195.9
12962,148.0
12967,144.5
12969,144.0
12974,177.9
12975,140.7
12976,149.1
12978,159.3
12980,184.9
12982,165.1
12983,209.7
12987,142.2
12990,192.3
12991,182.7
12992,188.5
12993,148.3
12995,162.5
12999,157.3
13002,140.5
13005,169.7
13006,201.2
13007,210.6
13008,157.4
13010,186.7
13011,146.4
13012,161.2
13015,191.4
13017,168.9
13018,214.8
13021,173.6
13022,180.5
13025,177.8
13028,189.3
13030,167.5
13033,171.2
13035,167.7
13036,149.2
13038,154.9
13039,174.2
13040,146.3
13041,175.1
13044,198.7
13046,204.9
13049,147.1
13052,195.0
13056,194.1
13059,180.0
13060,200.0
13062,207.7
13063,178.0
13066,159.2
13069,168.4
13072,148.5
13076,167.7
13080,199.4
13083,201.2
13086,170.5
13088,202.1
13089,147.1
13096,183.5
13097,215.2
13098,169.8
13100,179.6
13102,176.7
13103,175.4
13104,155.6
13105,207.7
13108,182.0
13109,199.8
13110,205.9
13113,143.7
13114,198.4
13115,157.4
13117,160.0
13118,192.4
13122,197.4
13123,216.4
13125,193.4
13127,216.9
13130,142.0
13131,164.2
13135,203.0
13136,210.9
13137,154.1
13138,173.9
13140,198.2
13144,172.8
13145,140.1
13147,216.1
13149,148.8
13151,204.4
13155,173.3
13157,157.4
13158,147.7
13159,163.9
13160,190.1
13162,148.2
13163,154.8
13164,180.9
13167,149.0
13168,171.7
13170,182.5
13171,139.4
13172,173.7
13173,211.0
13174,173.3
13177,178.3
13181,207.3
13182,171.1
13183,170.2
13184,218.2
13185,162.5
13186,171.0
13194,180.8
13195,178.6
13197,141.7
13198,147.1
13201,170.2
13209,184.7
13210,216.9
13211,139.4
13212,140.2
13214,162.3
13216,157.6
13218,194.6
13220,213.6
13222,158.2
13224,160.0
13225,198.3
13226,195.2
13228,146.3
13229,167.6
13232,218.0
13234,199.7
13239,157.4
13241,151.6
13242,216.4
13247,219.0
13248,187.5
13249,192.9
13250,153.4
13251,214.8
13252,149.7
13257,170.7
13258,187.9
13259,162.4
13260,143.5
13263,161.1
13265,157.4
13269,170.2
13272,214.9
13274,151.6
13276,147.5
13279,154.8
13284,183.5
13285,153.6
13286,181.1
13287,162.5
13288,149.9
13289,155.4
13290,147.0
13292,157.4
13293,149.1
13296,195.7
13299,201.8
13300,215.7
13301,192.2
13302,207.8
13303,178.4
13304,194.2
13306,157.4
13308,182.1
13311,198.3
13312,206.9
13314,181.7
13315,160.2
13319,186.1
13320,165.1
13321,211.6
13324,186.5
13325,175.9
13328,188.0
13330,165.3
13333,160.0
13339,214.4
13341,150.8
13343,179.2
13344,148.8
13346,147.1
13355,183.7
13356,172.7
13358,166.9
13360,172.8
13364,173.4
13365,181.3
13366,147.6
13369,189.6
13370,193.0
13372,219.6
13374,167.7
13377,211.3
13382,140.8
13383,146.2
13384,156.9
13385,204.1
13386,208.3
13387,149.7
13388,209.2
13393,165.1
13394,208.9
13399,147.6
13401,175.4
13402,172.6
13404,206.3
13405,153.5
13411,176.9
13412,216.4
13413,206.6
13414,162.5
13418,175.9
13419,154.2
13421,209.3
13422,173.2
13424,173.5
13427,144.5
13429,164.4
13434,172.8
13435,179.0
13441,184.8
13442,178.0
13444,145.7
13446,185.9
13448,211.3
13449,182.0
13450,195.2
13452,187.2
13453,186.5
13455,165.1
13457,186.8
13460,171.4
13462,218.2
13463,153.3
13465,143.8
13468,144.5
13479,201.1
13481,172.8
13483,191.4
13484,141.0
13485,146.1
13487,219.3
13490,167.8
13491,203.6
13493,195.6
13495,152.2
13498,149.2
13499,157.7
13503,218.7
13504,155.6
13509,142.0
13514,213.7
13515,204.2
13516,159.4
13517,177.6
13519,208.9
13520,166.4
13522,170.2
13523,186.3
13524,200.3
13526,143.6
13527,195.1
13528,206.8
13530,159.4
13531,193.8
13534,188.1
13535,200.0
13536,152.2
13539,169.7
13540,202.1
13541,180.3
13542,167.3
13543,173.7
13544,217.4
13549,136.8
13550,209.4
13556,194.4
13557,213.4
13558,183.9
13559,206.5
13560,152.3
13562,162.5
13564,208.0
13568,219.9
13569,157.4
13570,190.6
13572,151.6
13574,165.8
13575,216.9
13577,149.7
13580,167.4
13583,175.0
13585,161.8
13586,206.7
13590,147.1
13593,196.0
13594,154.7
13598,184.6
13599,210.3
13600,190.3
13603,162.5
13605,207.4
13607,212.3
13608,206.5
13611,206.6
13612,209.4
13617,152.2
13618,211.8
13619,212.4
13630,147.1
13635,148.5
13636,196.3
13638,154.6
13639,155.0
13641,204.9
13642,149.7
13643,183.4
13644,152.2
13645,158.7
13646,187.9
13648,168.6
13649,147.8
13650,156.6
13658,160.0
13660,201.8
13661,160.1
13663,158.7
13664,165.1
13665,157.4
13666,144.2
13671,162.5
13672,159.4
13673,211.6
13674,204.1
13681,187.8
13683,181.7
13684,152.2
13685,199.0
13686,202.0
13688,189.7
13689,192.0
13690,174.3
13691,192.9
13692,169.0
13698,167.7
13700,203.1
13701,183.1
13703,150.8
13704,162.2
13705,198.4
13707,185.0
13709,199.9
13710,188.4
13712,162.5
13713,154.1
13714,148.6
13716,178.7
13718,202.1
13719,155.1
13722,192.1
13724,200.8
13725,152.2
13729,147.4
13730,172.0
13731,145.1
13735,210.2
13736,157.3
13737,189.7
13739,178.0
13740,155.4
13741,174.3
13744,142.3
13746,195.4
13747,149.7
13748,192.5
13750,196.5
13752,165.1
13753,218.0
13754,196.5
13755,154.4
13759,150.6
13760,153.7
13765,144.5
13766,153.7
13768,208.1
13769,161.6
13771,195.1
13775,182.0
13777,203.4
13779,178.0
13781,197.7
13784,204.9
13785,144.9
13787,193.9
13788,159.7
13791,198.7
13792,174.7
13793,170.2
13796,164.7
13799,141.2
13800,211.3
13801,148.0
13802,203.3
13805,163.2
13806,152.2
13808,153.5
13809,200.9
13810,184.2
13814,208.2
13817,152.4
13819,180.5
13821,218.8
13822,142.5
13824,195.5
13825,159.6
13828,206.9
13832,169.4
13833,157.4
13836,195.8
13837,164.6
13838,172.9
13839,196.1
13841,215.0
13843,149.4
13844,198.9
13847,139.4
13848,174.1
13850,145.2
13851,166.9
13853,219.2
13855,140.6
13856,204.2
13858,162.8
13860,170.2
13862,164.7
13863,168.1
13864,189.7
13865,189.6
13869,145.2
13874,152.2
13875,155.4
13876,143.1
13878,164.9
13879,190.9
13882,164.0
13885,166.0
13887,144.5
13889,147.5
13890,190.7
13892,144.5
13893,212.7
13894,154.3
13896,208.8
13897,193.4
13899,205.7
13900,167.7
13903,145.6
13910,191.4
13911,165.5
13912,165.6
13913,161.4
13915,147.1
13918,199.9
13922,187.5
13923,154.0
13928,139.4
13930,190.7
13931,154.0
13934,178.4
13937,196.9
13938,174.6
13940,193.1
13941,162.5
13943,219.9
13944,188.0
13946,202.0
13947,185.6
13948,158.7
13953,183.0
13955,152.2
13959,147.5
13960,160.0
13961,206.8
13962,190.0
13965,183.3
13966,200.4
13967,188.7
13968,144.5
13973,141.3
13974,189.7
13975,158.4
13977,203.5
13979,150.1
13982,154.8
13984,192.3
13985,208.7
13987,163.5
13990,170.3
13993,193.9
13996,157.4
13999,181.0
14000,155.0
14001,172.8
14003,156.1
14005,164.0
14006,181.4
14009,162.5
14012,188.4
14015,216.2
14016,160.6
14020,177.8
14022,162.5
14025,148.2
14027,216.6
14028,182.1
14030,174.9
14032,189.0
14033,198.5
14034,180.6
14036,170.2
14039,202.1
14042,169.0
14044,163.0
14045,162.7
14046,198.2
14047,154.1
14050,165.1
14051,215.5
14053,215.6
14054,184.4
14062,167.5
14063,149.7
14064,176.0
14068,156.3
14070,205.7
14075,141.7
14076,175.4
14078,209.0
14079,153.0
14080,200.7
14082,184.8
14083,212.3
14087,181.8
14088,189.7
14090,172.8
14092,169.9
14095,161.8
14097,218.8
14098,178.4
14102,190.5
14103,140.7
14104,149.7
14105,185.5
14106,204.5
14108,188.4
14111,216.8
14114,162.7
14115,156.8
14117,180.5
14119,188.1
14121,207.2
14124,177.6
14125,166.3
14126,160.7
14128,150.0
14131,162.5
14134,184.0
14135,156.1
14136,143.0
14138,187.4
14139,187.1
14140,161.9
14141,184.0
14142,216.0
14143,157.0
14144,149.7
14146,162.0
14147,162.8
14149,198.4
14154,191.6
14155,193.4
14157,180.5
14158,181.3
14160,174.7
14163,176.0
14164,183.1
14165,186.4
14166,176.6
14170,172.7
14172,162.5
14173,148.5
14174,196.0
14175,208.4
14176,141.8
14177,209.1
14179,208.4
14180,186.7
14181,146.8
14182,160.9
14183,175.2
14184,146.6
14185,139.4
14186,142.1
14190,200.7
14192,203.9
14195,160.9
14198,170.2
14199,216.1
14200,197.3
14201,215.6
14202,148.2
14203,171.4
14205,206.3
14207,173.5
14209,198.2
14210,140.0
14211,167.1
14212,154.8
14213,183.4
14214,180.4
14215,215.5
14216,194.9
14217,170.7
14218,193.0
14219,160.9
14222,210.9
14223,194.6
14225,149.7
14228,156.4
14230,195.5
14234,217.6
14236,169.4
14238,211.0
14239,175.4
14242,218.7
14243,186.0
14245,166.2
14246,210.6
14247,219.4
14248,162.3
14249,200.8
14250,141.3
14253,154.8
14256,166.8
14258,172.7
14259,208.5
14260,186.1
14262,215.9
14263,178.8
14265,164.9
14266,139.4
14268,150.9
14270,197.0
14273,212.1
14276,212.1
14279,165.1
14280,203.6
14282,174.8
14283,177.7
14285,196.2
14286,187.0
14287,212.0
14288,204.1
14289,149.9
14292,149.7
14293,216.7
14294,207.6
14298,166.4
14300,218.4
14302,194.6
14303,159.3
14306,165.9
14307,147.1
14316,196.5
14318,179.2
14320,160.0
14322,199.6
14325,200.4
14326,210.0
14327,164.1
14331,219.4
14333,157.4
14337,145.7
14341,172.9
14346,200.5
14347,147.1
14350,181.4
14354,163.0
14355,159.6
14357,199.9
14358,208.8
14359,209.5
14360,160.0
14361,193.7
14362,155.7
14371,181.0
14372,157.7
14373,197.6
14374,160.0
14378,146.8
14379,201.6
14380,208.0
14383,151.3
14384,183.9
14385,170.2
14387,166.7
14388,149.7
14390,217.3
14392,188.8
14393,156.7
14394,200.7
14397,191.4
14399,180.3
14400,169.5
14401,144.5
14402,212.5
14404,212.3
14410,179.2
14414,160.0
14415,168.0
14417,170.1
14418,178.0
14420,211.3
14422,171.0
14424,173.2
14425,144.1
14428,160.0
14429,155.5
14433,173.8
14436,160.3
14437,194.4
14439,156.9
14442,154.8
14445,187.6
14448,172.2
14449,202.5
14450,170.2
14451,199.1
14452,159.6
14455,183.1
14456,148.4
14458,145.8
14459,217.0
14460,155.7
14462,169.7
14463,194.4
14468,147.1
14469,167.7
14470,197.1
14472,199.4
14473,143.8
14474,210.6
14475,207.1
14481,210.9
14482,144.5
14488,164.1
14489,209.3
14490,176.9
14491,210.9
14492,153.8
14495,178.0
14499,173.1
14501,150.9
14503,159.6
14505,171.4
14506,183.1
14508,195.7
14510,167.7
14513,180.8
14515,212.1
14517,184.3
14520,210.9
14521,179.1
14523,147.1
14524,179.7
14526,202.7
14527,217.3
14530,208.7
14532,189.1
14534,194.7
14535,192.0
14536,178.0
14537,215.3
14538,207.1
14539,197.0
14541,151.1
14542,168.3
14546,155.2
14547,200.0
14550,157.4
14551,203.0
14553,210.3
14556,209.5
14560,217.0
14562,202.7
14563,136.8
14566,178.1
14567,177.3
14569,184.6
14571,162.5
14577,167.7
14582,161.2
14583,152.0
14585,216.7
14588,178.4
14590,154.8
14596,177.4
14600,146.4
14602,187.7
14604,136.8
14605,168.1
14606,163.8
14609,146.1
14612,200.4
14613,201.3
14617,160.0
14619,192.1
14620,156.6
14621,189.8
14623,144.7
14624,142.6
14625,197.4
14626,185.7
14629,162.2
14630,144.5
14632,142.7
14633,172.7
14636,171.9
14638,198.1
14639,152.0
14641,199.6
14642,197.8
14645,139.4
14647,167.5
14648,182.0
14649,216.7
14650,166.7
14652,192.6
14654,169.2
14655,167.4
14658,162.5
14661,154.4
14662,156.0
14664,194.1
14667,215.3
14671,152.2
14672,174.4
14673,142.6
14676,194.7
14678,213.2
14681,201.0
14683,208.9
14684,142.9
14685,144.5
14686,177.3
14687,208.4
14690,185.6
14692,146.3
14694,144.8
14695,159.6
14698,154.8
14703,164.6
14705,219.2
14706,193.3
14712,149.7
14714,206.0
14716,146.2
14717,188.0
14718,201.2
14721,180.1
14722,187.3
14723,171.9
14724,165.1
14726,154.8
14728,146.4
14729,183.8
14730,194.6
14731,165.5
14733,157.2
14736,216.9
14738,203.0
14739,160.0
14741,162.1
14742,174.1
14743,165.0
14744,164.5
14747,175.9
14748,213.9
14750,180.9
14752,165.1
14753,201.1
14756,172.7
14757,178.9
14759,140.0
14764,197.6
14765,198.6
14766,157.4
14767,172.9
14772,193.7
14777,208.7
14780,147.1
14781,206.7
14782,183.8
14784,151.8
14788,189.1
14792,199.2
14793,165.1
14794,197.0
14798,169.5
14801,167.4
14803,188.0
14807,165.1
14811,170.0
14819,182.1
14820,147.1
14821,189.5
14822,162.1
14828,153.1
14831,158.6
14832,158.5
14833,172.8
14835,198.4
14842,185.9
14844,154.9
14846,173.8
14848,162.5
14850,162.9
14853,141.4
14855,162.3
14856,178.5
14860,159.4
14861,144.5
14862,182.8
14863,154.0
14866,152.4
14869,160.3
14871,168.4
14874,178.0
14875,157.3
14878,147.1
14879,171.1
14880,142.6
14884,178.8
14886,176.1
14887,165.1
14890,159.5
14891,184.1
14892,207.0
14896,160.3
14900,198.7
14901,180.0
14902,139.4
14905,153.4
14906,176.4
14909,209.2
14910,206.2
14911,140.2
14915,170.2
14916,166.2
14919,161.0
14920,148.2
14922,214.4
14924,199.7
14926,193.8
14928,154.8
14929,213.3
14931,158.1
14933,180.4
14934,191.6
14936,207.1
14937,219.4
14942,134.2
14943,183.0
14947,199.8
14948,196.0
14949,208.8
14950,173.1
14951,214.1
14955,165.1
14958,209.2
14959,178.3
14960,147.6
14962,147.2
14963,156.3
14965,169.3
14968,180.4
14969,147.1
14972,155.0
14974,151.3
14975,181.1
14977,155.6
14982,212.1
14983,134.2
14984,217.6
14986,201.8
14988,182.8
14989,146.3
14990,156.8
14991,189.8
14993,182.2
14994,183.0
14995,191.0
14996,167.7
14997,195.5
14998,179.1
14999,188.2
15000,167.5
15002,189.8
15005,189.6
15009,147.1
15011,204.7
15014,181.8
15016,196.5
15017,194.2
15020,217.9
15023,147.1
15025,213.3
15029,217.7
15031,184.3
15032,170.0
15033,168.9
15034,181.5
15037,165.1
15038,211.0
15042,209.2
15043,170.1
15045,167.6
15046,189.7
15049,157.2
15050,157.4
15051,156.4
15052,208.3
15053,187.0
15059,164.9
15061,201.0
15062,185.8
15063,183.8
15064,149.7
15068,197.3
15071,143.3
15072,144.4
15073,155.7
15075,182.6
15076,205.5
15077,160.0
15078,209.3
15079,155.1
15080,150.2
15084,188.5
15085,205.3
15087,164.9
15090,162.5
15091,152.6
15093,195.1
15094,210.1
15095,185.9
15099,199.6
15101,159.4
15105,165.1
15108,201.1
15110,144.2
15112,187.0
15114,213.9
15118,160.0
15120,153.9
15121,181.2
15123,152.4
15127,212.4
15130,163.6
15131,170.2
15132,219.2
15137,163.7
15138,172.1
15139,155.7
15140,146.7
15141,210.6
15143,168.5
15144,165.1
15147,155.7
15154,144.3
15157,145.0
15158,157.4
15161,157.9
15162,155.2
15167,204.7
15168,163.7
15169,176.0
15170,182.6
15172,180.5
15173,193.7
15174,148.0
15177,143.8
15179,220.0
15181,199.2
15182,168.8
15184,183.9
15185,172.8
15187,193.1
15188,165.0
15190,176.5
15193,199.3
15196,196.6
15197,159.0
15199,147.1
15207,204.0
15209,166.0
15210,210.9
15211,149.6
15212,183.1
15213,184.7
15218,217.9
15219,187.8
15220,147.9
15221,172.5
15222,189.1
15224,212.4
15225,162.5
15227,161.4
15229,152.2
15230,173.4
15232,194.8
15233,214.8
15234,213.4
15235,204.3
15236,141.8
15237,217.7
15238,213.4
15240,147.1
15242,199.9
15245,218.6
15247,170.4
15250,189.3
15252,141.4
15253,180.5
15260,211.6
15261,211.1
15263,208.0
15264,198.1
15265,190.9
15266,160.0
15269,152.8
15270,160.0
15272,204.0
15278,149.9
15280,139.4
15284,182.8
15285,173.4
15286,180.3
15287,150.1
15289,195.0
15293,170.2
15297,190.6
15298,179.9
15299,214.2
15300,172.2
15303,192.0
15306,170.5
15307,152.2
15308,189.5
15309,202.3
15312,216.4
15313,142.4
15314,155.5
15320,161.7
15321,144.5
15330,185.8
15331,214.6
15332,146.9
15334,170.2
15339,140.3
15340,167.6
15342,158.4
15344,193.0
15345,190.7
15347,149.7
15348,213.8
15349,215.8
15351,168.1
15361,139.4
15363,150.4
15366,150.6
15367,190.2
15369,143.9
15372,156.1
15375,165.1
15377,151.7
15379,143.7
15381,191.6
15385,177.1
15388,154.8
15390,207.6
15391,184.7
15395,189.3
15396,198.8
15398,160.3
15399,155.3
15400,177.0
15401,147.1
15403,149.8
15408,188.8
15409,147.1
15411,166.8
15414,212.1
15415,160.0
15417,204.9
15425,166.5
15426,219.7
15427,210.8
15428,160.0
15432,204.2
15435,141.8
15437,214.4
15439,213.1
15440,215.8
15441,172.0
15442,147.1
15443,204.5
15452,143.5
15453,184.2
15456,154.8
15457,153.9
15458,214.8
15459,154.6
15460,141.0
15461,202.7
15462,207.8
15463,210.9
15464,161.1
15466,216.4
15469,162.5
15471,171.9
15472,218.4
15473,217.3
15477,143.3
15481,186.4
15482,157.4
15484,160.6
15485,146.7
15488,180.2
15490,198.3
15491,180.4
15493,174.9
15495,217.0
15496,147.1
15498,160.8
15499,142.8
15500,212.0
15502,166.3
15504,207.3
15506,174.5
15507,150.8
15508,181.2
15510,165.1
15512,179.4
15515,180.7
15516,180.8
15518,198.2
15520,170.5
15522,174.0
15523,162.5
15526,218.6
15529,218.1
15532,189.9
15537,152.2
15538,159.0
15539,156.5
15540,192.7
15541,144.2
15542,191.8
15543,210.8
15544,151.0
15549,187.3
15550,178.0
15551,210.8
15553,219.4
15554,203.9
15555,209.5
15556,184.5
15560,140.7
15562,162.4
15563,162.5
15566,206.5
15567,162.2
15568,200.3
15569,212.2
15570,146.4
15572,186.2
15573,141.2
15575,180.7
15576,156.6
15577,149.7
15578,142.0
15579,197.7
15580,160.5
15582,219.6
15583,186.9
15584,219.2
15587,165.8
15588,159.7
15590,153.5
15591,178.0
15592,197.5
15595,163.2
15601,145.9
15603,196.9
15604,167.7
15605,149.8
15606,176.8
15608,185.1
15610,143.8
15611,168.9
15612,164.6
15618,147.1
15619,150.3
15621,159.1
15623,168.7
15625,147.4
15628,198.8
15629,177.9
15631,175.4
15632,191.2
15636,205.6
15638,166.5
15642,157.7
15643,192.6
15644,171.5
15645,160.0
15649,140.6
15650,184.5
15659,142.0
15660,209.2
15667,200.7
15668,172.3
15669,190.1
15670,199.9
15672,172.8
15673,173.1
15676,204.0
15677,170.4
15678,192.9
15679,187.4
15680,153.3
15683,201.9
15685,157.4
15687,215.1
15689,182.8
15690,154.8
15691,210.9
15692,182.0
15693,153.2
15694,182.9
15697,140.1
15698,142.0
15700,201.1
15702,182.2
15704,152.3
15708,169.9
15709,143.3
15712,211.9
15713,165.1
15716,181.1
15721,174.2
15724,198.2
15725,194.5
15726,149.7
15727,206.5
15728,178.8
15731,172.8
15732,179.6
15734,141.5
15737,215.9
15739,142.0
15743,162.3
15745,204.1
15746,157.5
15748,217.9
15749,198.7
15750,186.0
15752,206.5
15753,162.5
15760,178.0
15762,151.7
15763,158.5
15765,190.9
15767,162.5
15770,146.5
15772,178.2
15776,211.8
15777,194.7
15778,196.7
15779,188.0
15780,149.7
15783,152.7
15784,180.2
15786,189.8
15794,157.4
15795,162.0
15797,196.7
15800,217.2
15801,147.0
15804,194.9
15806,196.5
15807,160.0
15808,163.3
15810,182.1
15812,194.7
15813,218.6
15814,152.5
15815,175.5
15819,200.8
15820,160.0
15823,207.1
15825,192.2
15826,203.2
15831,189.5
15833,174.0
15835,160.0
15843,166.8
15844,161.5
15848,167.7
15849,172.5
15856,203.0
15857,145.8
15859,168.7
15861,165.1
15863,191.3
15867,164.9
15868,148.9
15875,152.2
15878,172.3
15880,182.4
15882,174.1
15883,214.8
15886,140.6
15887,204.7
15888,175.4
15889,185.3
15895,156.5
15902,170.2
15903,198.9
15904,205.5
15909,144.9
15910,148.8
15913,202.7
15916,149.7
15917,207.0
15919,146.9
15921,198.9
15922,186.0
15924,192.2
15929,178.0
15930,152.4
15931,213.8
15933,151.6
15935,181.9
15937,200.7
15940,203.4
15942,162.5
15943,157.2
15944,201.8
15945,188.0
15949,178.4
15950,172.8
15951,143.9
15952,190.3
15953,201.3
15955,142.0
15958,174.9
15959,195.5
15965,216.4
15967,204.4
15968,209.9
15969,217.7
15970,180.5
15972,162.0
15973,203.5
15974,155.7
15977,164.0
15980,140.4
15981,207.1
15983,167.7
15985,166.7
15987,157.5
15992,199.8
15993,170.0
15994,210.5
15995,171.9
15996,147.1
15997,218.9
16002,178.9
16008,214.3
16010,178.0
16012,166.1
16014,161.8
16022,210.5
16023,160.0
16024,167.6
16031,186.9
16033,211.4
16036,143.3
16037,144.5
16038,211.2
16040,178.8
16041,161.4
16042,199.8
16043,219.2
16045,190.6
16047,151.0
16049,150.9
16050,190.3
16051,172.8
16053,200.0
16054,171.6
16055,195.7
16057,203.5
16059,189.9
16060,145.0
16063,187.9
16064,152.2
16066,152.3
16067,182.5
16068,218.5
16069,172.7
16074,199.1
16077,139.4
16080,214.0
16084,152.3
16088,180.1
16089,199.0
16090,153.7
16091,160.0
16092,146.8
16093,210.5
16095,168.6
16096,165.7
16097,210.9
16098,202.8
16099,207.1
16101,157.4
16104,159.7
16105,149.7
16106,141.6
16110,179.8
16111,167.2
16115,165.6
16117,151.1
16118,149.7
16120,213.1
16123,170.9
16125,173.3
16126,157.4
16128,188.6
16130,171.8
16131,191.3
16132,162.5
16133,161.4
16135,199.9
16142,140.2
16144,184.9
16145,157.4
16147,202.1
16148,141.8
16152,178.4
16153,167.5
16155,193.3
16156,211.5
16157,195.8
16158,149.7
16162,215.1
16163,188.6
16170,145.2
16173,152.2
16176,178.7
16177,169.6
16178,152.3
16179,194.2
16182,162.2
16184,147.7
16186,165.1
16187,164.5
16189,202.5
16190,167.1
16193,193.8
16196,174.4
16198,162.0
16199,170.2
16201,183.3
16202,181.6
16203,193.8
16206,159.6
16207,202.4
16208,166.9
16211,185.6
16212,162.5
16213,161.8
16216,175.6
16217,168.0
16222,202.4
16226,178.0
16227,186.6
16229,142.9
16232,141.5
16233,166.1
16234,198.0
16239,161.1
16240,167.7
16243,203.5
16245,156.8
16247,206.8
16248,157.8
16253,149.7
16254,201.3
16258,183.0
16259,192.6
16260,148.1
16264,208.8
16267,178.0
16268,204.1
16269,154.0
16270,151.3
16271,140.2
16272,186.6
16273,201.4
16276,208.7
16279,144.3
16280,167.7
16283,172.4
16284,216.0
16285,159.3
16286,209.2
16290,167.7
16292,168.8
16293,149.7
16295,177.1
16296,150.0
16301,144.1
16303,143.8
16304,149.8
16305,166.6
16307,160.2
16308,175.4
16313,176.4
16314,158.3
16315,163.0
16316,216.9
16320,159.2
16321,162.5
16323,145.7
16324,211.6
16325,161.0
16326,182.9
16328,150.7
16329,168.2
16330,169.2
16334,144.5
16337,217.0
16339,166.9
16342,160.4
16343,157.9
16344,161.6
16346,217.3
16347,190.7
16348,178.0
16350,164.7
16351,171.5
16355,166.3
16359,191.9
16360,177.4
16361,162.5
16362,189.6
16365,165.1
16366,159.0
16368,151.6
16369,169.3
16372,169.8
16373,184.2
16375,142.0
16378,206.7
16380,193.9
16383,186.6
16384,217.4
16385,167.5
16389,172.8
16391,199.7
16393,164.1
16395,179.0
16398,214.2
16400,147.8
16402,154.8
16403,172.7
16405,143.5
16412,203.0
16415,147.1
16418,212.8
16419,201.9
16421,161.0
16423,191.2
16425,202.1
16427,172.8
16428,159.1
16429,175.4
16432,199.3
16433,192.4
16442,217.0
16443,154.8
16446,164.2
16449,140.2
16451,141.5
16452,148.1
16454,172.0
16455,187.4
16456,142.0
16458,218.1
16460,190.7
16461,147.7
16462,198.4
16464,179.4
16465,187.2
16467,197.6
16468,204.5
16470,160.0
16471,195.5
16472,217.9
16476,150.0
16477,167.9
16478,165.5
16479,167.2
16480,143.3
16482,197.0
16483,152.2
16484,179.9
16488,162.7
16489,197.1
16490,172.2
16491,149.8
16494,142.0
16495,188.7
16496,147.1
16504,171.1
16508,141.5
16509,176.8
16510,160.0
16512,189.3
16515,142.5
16516,207.7
16517,200.6
16519,175.1
16520,142.8
16523,170.7
16524,162.5
16525,185.8
16531,191.7
16532,186.0
16537,160.0
16538,179.1
16541,174.6
16542,187.8
16545,215.5
16546,165.0
16547,194.4
16548,171.8
16549,196.3
16550,157.4
16553,148.8
16556,203.9
16558,186.3
16559,202.4
16560,193.2
16561,201.7
16563,213.9
16564,172.8
16566,173.9
16571,172.1
16572,160.0
16575,219.9
16577,203.2
16578,170.2
16581,178.9
16582,159.2
16591,152.2
16594,210.3
16598,203.6
16602,196.3
16603,187.5
16604,143.6
16605,172.8
16607,144.6
16611,150.2
16612,182.7
16613,157.2
16615,202.3
16618,167.7
16620,217.4
16624,158.4
16625,167.6
16628,148.5
16629,155.5
16630,140.6
16631,161.8
16632,152.2
16634,143.8
16643,177.4
16644,208.6
16646,185.7
16649,153.2
16653,190.8
16655,218.0
16658,158.1
16659,167.7
16660,172.4
16662,193.8
16665,158.0
16667,178.4
16670,201.8
16672,144.5
16674,185.4
16678,175.3
16679,205.6
16681,145.0
16684,195.6
16686,178.0
16688,181.6
16693,141.8
16694,196.3
16697,208.3
16698,211.3
16699,140.9
16700,165.1
16701,144.1
16702,176.5
16703,197.7
16704,204.4
16705,201.9
16709,175.0
16713,144.5
16714,169.2
16715,205.1
16721,171.2
16722,142.0
16723,153.9
16724,208.0
16725,154.5
16727,175.4
16728,219.3
16729,173.2
16730,211.8
16731,177.7
16734,187.3
16735,161.2
16740,162.5
16747,202.3
16748,145.5
16751,210.9
16753,139.4
16758,209.1
16759,181.8
16760,174.3
16762,186.7
16766,147.1
16768,167.7
16769,150.1
16771,150.3
16780,155.7
16781,157.4
16782,204.2
16783,146.0
16785,190.1
16786,153.3
16788,209.3
16791,204.4
16792,146.6
16794,149.7
16795,148.7
16796,179.1
16798,191.4
16799,185.4
16802,218.3
16804,207.4
16805,204.8
16806,209.2
16807,167.7
16809,171.5
16811,200.7
16812,165.5
16813,217.1
16815,190.3
16817,161.8
16819,213.2
16820,196.0
16821,152.2
16824,154.5
16828,194.9
16834,165.4
16835,144.5
16837,162.9
16838,146.1
16839,181.7
16840,203.8
16841,195.0
16844,193.3
16846,201.2
16848,167.7
16849,195.7
16852,146.8
16854,170.6
16857,176.0
16861,180.9
16862,165.1
16863,141.5
16864,167.1
16866,144.6
16870,184.2
16875,160.0
16876,191.8
16883,183.2
16885,195.2
16888,160.0
16890,157.3
16893,207.0
16894,197.8
16896,181.0
16897,202.4
16898,183.0
16900,211.8
16901,209.0
16902,215.1
16903,165.1
16914,160.8
16916,162.5
16918,193.7
16920,153.3
16922,215.7
16923,160.9
16924,181.8
16926,155.9
16929,154.8
16931,165.9
16932,218.0
16936,212.0
16937,148.9
16938,175.4
16941,183.3
16942,212.9
16943,178.0
16945,140.9
16946,140.1
16952,178.5
16956,167.7
16958,202.2
16961,213.6
16963,177.5
16964,178.6
16965,198.6
16967,140.8
16968,173.7
16969,193.2
16970,147.1
16971,174.8
16972,217.7
16975,159.0
16980,177.2
16981,151.6
16982,188.3
16983,140.2
16984,175.4
16985,173.7
16986,178.6
16989,207.1
16995,190.9
16997,170.2
16999,154.8
17002,147.5
17005,151.8
17009,162.6
17010,154.8
17011,181.9
17014,181.3
17015,184.9
17016,192.5
17017,148.2
17018,171.2
17019,185.9
17020,143.6
17021,210.9
17023,193.7
17024,183.1
17025,171.0
17027,163.8
17029,166.3
17030,172.0
17034,189.2
17036,177.4
17038,167.7
17040,148.7
17041,189.0
17045,172.1
17046,165.8
17048,212.5
17051,147.1
17058,200.2
17062,188.7
17064,185.7
17066,141.6
17070,202.8
17071,160.0
17073,203.8
17077,142.7
17078,172.8
17079,185.2
17082,196.8
17084,178.9
17087,141.2
17089,163.9
17090,166.9
17091,152.2
17092,193.0
17093,149.2
17094,216.9
17095,176.1
17096,144.2
17101,184.2
17102,199.0
17104,169.9
17105,180.5
17107,185.9
17108,155.0
17111,219.5
17115,151.4
17116,171.3
17118,216.4
17119,160.0
17120,177.0
17123,154.0
17127,216.9
17128,213.8
17129,145.4
17131,159.9
17132,144.5
17134,212.1
17137,198.3
17142,202.5
17144,167.3
17145,175.4
17146,153.7
17148,203.7
17149,151.2
17150,149.0
17151,185.7
17153,214.3
17154,142.0
17155,196.6
17159,154.8
17160,176.4
17163,203.4
17164,181.2
17165,151.3
17167,207.4
17169,188.3
17170,155.9
17173,152.2
17174,219.5
17178,183.6
17183,200.5
17186,170.2
17191,206.2
17192,155.4
17194,207.1
17195,191.1
17197,140.3
17200,157.4
17202,169.0
17204,159.1
17205,204.3
17206,208.1
17208,178.4
17211,167.0
17213,160.0
17214,160.3
17217,185.9
17223,201.7
17224,196.5
17225,149.8
17226,170.2
17228,210.1
17230,198.8
17232,164.3
17234,212.6
17235,201.2
17236,152.0
17239,183.4
17241,172.8
17242,155.2
17243,185.7
17245,169.4
17246,216.1
17250,186.6
17251,178.6
17253,186.3
17254,162.5
17256,214.5
17258,167.1
17260,200.7
17261,188.2
17262,148.0
17264,214.3
17265,146.5
17266,178.9
17267,157.4
17270,142.1
17273,142.6
17277,172.9
17278,176.2
17280,144.6
17281,170.2
17283,185.9
17284,145.9
17285,160.3
17286,214.6
17287,170.6
17290,166.4
17291,217.1
17294,175.4
17295,160.3
17297,204.7
17300,200.9
17302,190.5
17305,187.2
17308,165.1
17311,156.7
17319,175.9
17320,184.7
17321,185.7
17322,149.2
17325,184.6
17326,201.1
17328,172.3
17329,177.2
17330,193.4
17332,208.6
17333,140.8
17335,172.8
17338,162.4
17339,164.8
17341,215.3
17345,192.5
17346,197.2
17348,152.2
17349,187.0
17350,197.3
17353,194.1
17356,193.5
17358,158.7
17361,185.7
17365,146.4
17366,201.0
17367,200.8
17368,143.6
17371,158.1
17372,161.1
17376,172.8
17377,203.3
17379,199.9
17385,197.8
17386,176.1
17387,213.0
17389,154.8
17390,218.7
17395,211.7
17400,161.1
17401,209.5
17402,183.1
17403,149.3
17404,140.0
17408,183.4
17409,211.8
17411,208.7
17412,186.9
17413,196.1
17414,218.7
17416,167.7
17417,198.0
17418,157.4
17422,149.4
17425,147.4
17428,167.6
17429,149.7
17431,141.6
17433,167.3
17438,163.2
17439,178.7
17441,176.4
17442,202.4
17443,183.1
17445,186.7
17447,215.1
17448,205.4
17449,197.4
17453,163.9
17456,178.2
17457,167.7
17463,206.6
17464,148.4
17465,144.1
17466,216.3
17467,186.1
17470,147.1
17471,171.4
17472,210.5
17473,169.0
17474,193.9
17477,168.1
17478,167.3
17483,175.4
17485,152.0
17486,185.2
17487,176.5
17488,153.3
17490,194.6
17493,156.8
17495,180.6
17498,160.0
17500,161.5
17501,219.1
17504,142.0
17505,156.3
17506,140.8
17507,180.6
17508,216.5
17509,170.4
17511,157.4
17515,208.7
17517,199.3
17520,140.9
17524,180.5
17525,174.7
17527,197.9
17528,198.3
17529,154.6
17534,209.2
17536,192.0
17538,162.5
17539,209.0
17544,145.4
17548,181.6
17551,152.2
17552,214.5
17556,202.5
17559,178.1
17561,190.0
17563,209.0
17565,167.7
17566,210.7
17568,211.2
17573,175.1
17574,170.0
17575,143.3
17576,192.3
17577,185.6
17579,167.7
17581,211.4
17583,172.5
17585,170.1
17586,179.8
17588,187.1
17591,210.3
17592,165.1
17593,204.6
17596,213.8
17599,145.6
17601,202.8
17602,144.4
17604,175.0
17605,167.7
17606,159.1
17607,168.6
17608,150.4
17616,187.8
17618,175.4
17619,153.8
17622,192.9
17623,142.6
17624,183.2
17627,212.1
17628,213.3
17630,163.0
17632,153.1
17633,172.8
17638,155.4
17639,215.3
17642,159.3
17645,203.0
17646,165.1
17648,157.3
17649,187.2
17650,158.4
17651,162.4
17652,141.8
17653,172.1
17654,196.7
17656,142.2
17657,207.9
17658,215.8
17659,188.3
17664,185.3
17670,217.9
17672,196.6
17673,180.5
17674,194.4
17675,140.2
17677,189.0
17678,192.3
17679,155.3
17680,175.0
17682,210.4
17683,165.8
17684,151.2
17685,164.4
17686,160.0
17687,150.9
17688,167.5
17689,178.6
17690,206.8
17691,142.6
17692,170.6
17698,215.2
17699,160.3
17700,188.3
17701,210.9
17702,184.5
17703,163.0
17705,178.3
17706,215.8
17707,159.6
17708,149.3
17711,186.3
17712,200.3
17714,188.3
17715,204.0
17716,202.7
17719,160.5
17725,169.0
17727,167.7
17733,217.0
17737,212.4
17738,182.4
17739,140.5
17740,201.1
17743,159.8
17744,175.5
17748,200.8
17752,164.2
17753,150.6
17754,180.5
17755,166.6
17758,142.4
17759,184.6
17760,217.7
17762,173.9
17764,182.4
17765,216.8
17768,154.8
17769,183.5
17770,142.2
17771,154.4
17772,158.3
17773,187.2
17774,150.4
17775,149.8
17776,211.0
17777,213.4
17778,142.7
17781,188.3
17782,211.9
17783,189.7
17785,197.4
17786,166.1
17790,172.1
17791,173.2
17793,156.7
17795,175.4
17796,187.3
17798,186.1
17802,150.5
17803,204.9
17804,185.3
17808,154.8
17810,202.1
17812,152.8
17814,210.8
17815,179.8
17818,206.1
17820,196.0
17821,180.5
17822,160.1
17823,152.6
17825,164.8
17830,169.0
17832,172.7
17836,162.5
17839,186.1
17843,149.0
17844,213.3
17849,152.2
17854,186.2
17855,164.8
17858,149.2
17859,140.7
17860,155.6
17861,154.6
17862,178.0
17863,184.5
17864,140.5
17865,140.4
17866,165.9
17869,196.1
17870,154.3
17872,179.0
17873,167.1
17874,146.3
17875,165.1
17876,215.1
17877,151.8
17887,152.7
17888,196.3
17889,154.8
17892,200.2
17894,146.6
17896,211.0
17899,168.9
17903,170.2
17904,169.3
17907,161.7
17910,171.9
17911,182.4
17912,189.6
17913,192.7
17914,195.7
17916,160.0
17917,144.4
17918,211.0
17919,172.5
17920,150.5
17921,177.3
17922,192.0
17924,141.4
17925,147.8
17928,153.7
17929,194.5
17930,167.7
17933,185.7
17936,160.2
17939,153.7
17940,144.1
17943,175.4
17945,209.4
17946,171.9
17947,178.5
17951,212.7
17952,167.3
17954,198.8
17955,214.6
17956,172.8
17958,204.4
17962,156.1
17965,185.8
17967,169.8
17969,216.2
17971,165.1
17972,151.3
17975,159.0
17976,184.4
17979,171.8
17980,196.6
17982,140.8
17983,143.9
17984,157.4
17987,147.0
17989,160.8
17991,175.6
17992,187.6
17995,158.3
17997,170.2
18002,172.1
18003,146.0
18007,199.3
18010,182.5
18011,175.4
18012,180.0
18015,148.0
18018,190.7
18019,140.6
18021,169.2
18024,154.8
18025,197.8
18026,185.2
18028,179.7
18031,218.5
18033,218.0
18034,193.5
18038,178.0
18041,142.2
18042,150.3
18043,145.9
18044,150.5
18051,149.5
18052,180.5
18057,185.0
18060,184.0
18062,197.7
18064,150.1
18065,160.0
18066,158.1
18069,152.0
18071,185.2
18074,207.3
18078,190.8
18079,206.5
18080,186.0
18081,208.1
18084,200.3
18086,186.8
18088,180.4
18091,187.5
18092,175.4
18094,148.3
18095,182.8
18096,215.0
18106,149.7
18110,212.7
18112,213.2
18113,204.8
18116,146.2
18119,180.5
18120,207.4
18122,204.2
18124,191.7
18125,146.7
18127,188.1
18129,217.9
18130,212.3
18132,167.7
18137,177.3
18138,206.4
18140,176.8
18141,195.7
18146,147.1
18147,148.9
18148,203.3
18150,164.8
18153,154.7
18154,184.9
18155,177.4
18159,180.5
18162,159.1
18166,173.0
18167,170.8
18168,167.7
18169,146.4
18173,165.1
18178,214.1
18179,159.0
18181,145.6
18184,164.0
18185,186.0
18187,147.1
18189,218.1
18193,203.3
18195,177.6
18196,176.0
18198,200.8
18199,191.7
18200,172.8
18202,196.7
18203,176.9
18205,153.7
18213,160.0
18217,200.1
18218,163.8
18220,190.8
18227,154.8
18231,155.8
18232,210.7
18233,208.8
18235,189.8
18241,170.2
18242,177.0
18244,179.6
18247,188.3
18253,209.4
18254,157.4
18255,169.0
18260,148.8
18261,212.3
18267,200.2
18268,154.8
18269,208.1
18277,157.8
18281,170.2
18284,181.5
18286,194.1
18290,143.4
18291,152.5
18292,213.3
18294,165.1
18295,143.8
18296,204.5
18298,161.6
18302,182.7
18309,162.5
18315,141.5
18316,163.7
18319,163.4
18320,186.5
18321,173.5
18322,160.0
18326,144.0
18328,142.4
18329,144.0
18330,163.0
18333,188.1
18335,167.7
18336,173.5
18337,168.3
18338,158.2
18342,173.2
18345,163.0
18347,153.4
18348,170.6
18349,167.7
18355,202.3
18357,195.5
18358,151.1
18360,169.3
18361,187.5
18363,157.4
18367,213.8
18370,157.7
18376,180.5
18380,202.6
18387,158.5
18388,187.6
18390,178.0
18391,146.8
18394,216.6
18400,213.8
18402,190.4
18403,160.0
18412,144.7
18414,148.0
18416,188.3
18417,166.6
18419,177.3
18426,148.7
18428,196.9
18430,183.1
18431,200.2
18433,154.7
18435,154.6
18437,164.9
18438,145.3
18442,179.3
18444,165.1
18445,209.3
18448,173.7
18451,217.6
18453,141.0
18456,140.9
18457,198.5
18458,145.3
18459,161.3
18460,213.5
18461,203.8
18462,157.4
18466,166.4
18467,182.2
18469,199.0
18470,178.0
18474,175.9
18477,164.5
18482,152.6
18483,183.1
18484,157.4
18486,159.4
18487,203.5
18490,200.9
18494,201.0
18495,189.3
18498,188.3
18500,194.8
18503,212.9
18504,178.5
18507,178.1
18510,214.7
18511,167.7
18512,218.6
18513,159.9
18515,187.6
18517,203.2
18519,153.3
18523,201.5
18525,152.2
18527,153.1
18531,164.1
18533,198.3
18534,158.9
18535,166.0
18536,143.4
18537,156.2
18538,180.5
18539,188.4
18541,141.3
18543,143.0
18546,217.7
18551,160.0
18552,144.4
18553,164.0
18554,176.3
18556,145.4
18557,207.3
18558,164.9
18561,151.7
18563,180.3
18564,160.0
18566,149.7
18568,199.0
18569,166.0
18570,160.8
18572,215.1
18574,197.2
18575,162.7
18577,191.3
18579,172.8
18580,150.0
18589,189.5
18592,154.8
18594,187.9
18596,197.9
18597,200.0
18598,198.8
18600,175.4
18601,169.1
18604,209.0
18606,152.2
18609,215.7
18610,158.0
18611,155.7
18612,216.5
18617,194.7
18619,167.7
18622,172.0
18625,141.5
18633,157.4
18635,165.6
18637,157.0
18638,202.2
18640,187.2
18643,154.7
18647,162.5
18650,219.3
18653,167.7
18656,181.1
18657,184.6
18658,157.8
18660,167.7
18661,176.5
18663,159.8
18664,203.9
18669,180.9
18672,211.4
18673,170.2
18674,159.7
18676,214.7
18678,158.6
18679,167.2
18680,190.3
18681,207.1
18682,156.7
18683,154.5
18685,158.4
18686,165.1
18687,164.8
18690,207.6
18691,152.2
18692,200.7
18694,214.7
18695,141.7
18696,185.6
18699,169.9
18700,197.2
18701,157.4
18702,176.7
18704,144.4
18708,158.4
18711,143.6
18712,213.3
18714,175.4
18715,172.0
18717,150.0
18718,205.7
18720,166.1
18722,205.5
18723,179.0
18724,147.2
18725,215.8
18727,167.7
18733,165.9
18734,208.7
18735,144.3
18741,149.7
18743,187.0
18745,217.3
18747,190.7
18749,195.9
18751,161.9
18753,152.2
18754,175.4
18755,191.8
18759,195.0
18760,163.9
18765,167.3
18768,165.1
18770,164.4
18774,146.3
18775,189.7
18776,169.7
18779,169.8
18780,147.0
18782,144.5
18784,165.7
18786,180.9
18787,205.0
18790,215.3
18791,201.7
18792,146.0
18793,147.3
18794,160.0
18795,180.5
18799,218.2
18800,217.9
18802,167.6
18803,141.7
18805,197.2
18808,165.1
18809,157.9
18812,195.1
18813,188.9
18814,160.3
18815,201.0
18816,145.5
18818,197.0
18819,177.6
18822,149.7
18825,166.7
18829,179.8
18831,200.5
18836,180.5
18837,168.6
18838,216.0
18839,211.5
18841,171.4
18842,203.8
18848,153.9
18849,162.5
18850,181.2
18852,192.0
18856,218.5
18857,172.8
18859,141.4
18863,147.1
18864,202.7
18866,149.6
18867,172.8
18870,207.6
18873,146.0
18874,193.6
18876,178.0
18878,182.9
18881,169.2
18882,215.9
18883,174.6
18886,165.3
18889,157.4
18891,140.7
18892,202.3
18893,176.7
18894,215.2
18895,165.0
18896,163.1
18900,144.4
18902,188.6
18904,144.5
18905,192.8
18907,180.1
18908,168.7
18909,192.2
18911,187.7
18913,176.8
18917,167.7
18918,146.2
18920,155.2
18921,157.3
18922,217.1
18926,141.9
18927,214.7
18930,152.2
18936,143.4
18939,201.2
18943,143.0
18944,149.7
18946,143.5
18950,213.3
18951,201.2
18952,173.4
18953,147.7
18955,144.0
18957,172.8
18959,157.3
18960,151.9
18962,206.5
18963,182.0
18965,184.6
18966,183.0
18968,156.6
18969,162.5
18970,217.9
18971,157.4
18972,171.3
18974,149.2
18977,215.1
18978,184.4
18982,149.1
18983,217.4
18984,154.8
18985,177.9
18987,182.9
18988,168.2
18991,182.2
18992,194.8
18994,214.6
18995,214.5
18998,162.5
18999,143.7
19002,168.0
19003,142.8
19004,187.3
19005,166.7
19006,172.0
19010,184.5
19011,160.0
19012,200.7
19013,170.4
19014,154.1
19017,142.7
19020,178.3
19022,152.5
19024,162.5
19026,179.1
19027,205.9
19031,197.9
19035,218.7
19036,149.0
19038,193.5
19039,157.4
19042,209.2
19044,175.8
19045,190.6
19047,176.6
19051,168.1
19052,167.7
19053,162.6
19060,177.3
19064,157.9
19065,167.7
19069,198.0
19070,202.5
19071,216.8
19072,157.8
19073,201.5
19074,188.3
19077,216.2
19078,181.6
19079,152.2
19082,187.9
19084,190.3
19085,185.6
19086,148.3
19087,160.4
19089,218.2
19090,188.6
19092,175.4
19094,156.4
19097,176.9
19100,146.4
19102,171.0
19103,161.1
19105,142.8
19106,175.4
19108,174.8
19111,182.1
19114,197.9
19116,176.0
19120,154.8
19122,145.5
19124,184.9
19126,201.0
19128,211.5
19129,146.7
19131,164.3
19132,174.5
19133,183.1
19134,168.1
19138,188.6
19141,169.2
19143,172.2
19145,219.8
19146,170.2
19148,159.9
19149,200.0
19150,180.3
19154,213.3
19156,192.5
19159,156.8
19160,149.7
19164,214.6
19166,141.3
19169,142.6
19171,168.0
19174,183.1
19175,206.8
19176,167.7
19178,166.5
19180,203.3
19181,159.2
19184,177.6
19185,178.1
19186,203.6
19187,165.1
19188,141.5
19190,156.0
19191,170.3
19195,195.0
19196,178.5
19197,187.4
19199,152.9
19200,173.3
19201,144.5
19204,169.7
19211,183.8
19212,193.9
19214,175.4
19215,141.0
19220,148.3
19221,161.0
19222,144.6
19227,216.3
19228,162.5
19233,216.4
19238,163.2
19239,165.7
19241,149.7
19244,192.7
19248,219.7
19252,163.7
19254,219.4
19255,178.0
19256,180.6
19258,199.6
19263,142.9
19265,185.1
19267,213.5
19268,157.4
19269,207.4
19270,185.4
19271,179.7
19274,190.5
19279,159.0
19280,180.8
19281,149.7
19282,150.8
19284,170.2
19288,171.3
19294,141.1
19295,203.9
19296,180.5
19297,201.8
19305,159.9
19309,165.1
19310,157.6
19313,193.7
19319,142.2
19320,186.4
19322,162.5
19323,163.3
19326,165.0
19328,189.2
19329,189.5
19330,158.1
19331,141.4
19336,172.8
19340,195.3
19342,197.1
19345,148.5
19346,219.3
19348,185.3
19349,165.1
19350,191.5
19356,165.1
19357,161.7
19359,200.4
19361,152.2
19363,167.7
19365,189.5
19370,195.5
19374,168.7
19376,181.7
19377,167.7
19379,203.9
19380,152.5
19381,166.9
19383,176.2
19386,166.2
19388,172.3
19389,140.3
19390,175.4
19392,150.2
19399,143.0
19401,158.0
19403,167.7
19404,216.3
19405,143.1
19406,170.6
19413,177.4
19415,208.2
19417,157.4
19418,218.0
19419,148.2
19420,168.8
19421,192.7
19423,181.5
19425,198.9
19426,206.1
19429,148.2
19431,175.4
19434,181.3
19435,190.3
19436,201.8
19438,180.5
19440,212.7
19442,166.9
19443,173.0
19444,180.5
19446,174.5
19448,196.8
19449,204.1
19451,208.0
19454,157.4
19457,150.2
19458,162.5
19459,182.2
19460,163.5
19463,162.0
19464,190.8
19466,142.7
19467,184.5
19468,204.0
19471,190.8
19472,173.3
19473,166.1
19476,177.9
19477,188.9
19478,206.3
19484,178.0
19485,204.8
19487,208.4
19489,162.5
19491,164.2
19493,141.2
19496,152.8
19497,218.2
19499,160.0
19502,195.5
19504,151.9
19506,182.9
19507,206.9
19508,155.3
19509,145.6
19512,198.5
19513,209.5
19514,158.8
19515,146.1
19517,169.4
19522,158.1
19523,145.9
19524,206.8
19525,185.7
19526,148.8
19527,182.6
19529,195.6
19530,170.4
19534,170.5
19537,187.0
19538,165.1
19539,149.7
19542,161.1
19543,149.7
19544,201.0
19546,193.6
19547,172.7
19549,170.7
19550,142.0
19552,193.4
19553,176.3
19556,202.6
19558,147.4
19560,180.1
19563,206.7
19565,149.9
19566,172.8
19568,148.2
19571,186.4
19572,204.0
19573,150.0
19574,165.2
19575,215.8
19576,216.5
19577,194.1
19578,151.4
19579,157.4
19582,164.3
19583,178.9
19584,184.8
19585,193.5
19588,156.9
19590,145.1
19593,188.3
19599,143.6
19603,160.9
19606,167.7
19607,162.5
19608,155.8
19609,145.6
19611,148.3
19612,215.5
19613,220.0
19618,185.0
19619,149.7
19621,148.3
19622,140.8
19623,218.7
19624,213.7
19626,195.8
19628,158.5
19630,165.2
19631,149.3
19633,209.9
19634,172.8
19635,193.5
19638,164.8
19641,176.0
19643,180.2
19644,173.1
19645,185.8
19646,162.0
19647,160.0
19648,143.8
19650,219.9
19651,170.9
19652,148.0
19654,192.8
19656,180.3
19659,182.1
19660,154.8
19661,145.5
19662,155.8
19663,161.0
19664,204.6
19665,201.0
19669,171.2
19673,165.2
19674,178.0
19676,150.0
19677,201.2
19678,176.6
19680,192.9
19684,177.8
19686,161.5
19687,167.7
19692,144.4
19693,198.1
19696,142.2
19698,157.2
19699,219.5
19701,160.0
19702,176.0
19704,160.7
19706,190.2
19707,189.1
19708,217.6
19709,176.0
19711,188.3
19713,158.4
19714,188.7
19715,167.7
19717,196.6
19720,171.5
19728,167.7
19734,217.6
19735,189.2
19738,147.1
19740,205.3
19741,172.8
19742,172.4
19746,164.0
19747,140.3
19748,170.8
19750,157.9
19752,174.1
19754,204.7
19755,170.2
19756,168.0
19761,215.2
19762,196.2
19763,184.5
19765,167.8
19766,214.0
19767,171.7
19768,147.0
19769,183.1
19771,206.9
19773,146.5
19775,219.7
19778,188.2
19779,191.5
19781,163.6
19782,175.4
19784,202.9
19787,153.3
19789,158.1
19791,143.0
19792,214.5
19793,141.7
19794,162.5
19795,160.0
19796,163.2
19797,181.7
19798,177.1
19799,164.0
19800,184.9
19802,202.0
19806,190.9
19809,185.7
19810,205.3
19811,187.3
19813,180.7
19817,181.3
19819,177.4
19820,211.9
19821,159.7
19822,178.0
19823,204.6
19825,142.0
19826,144.3
19827,211.4
19828,203.8
19830,140.3
19834,145.7
19835,178.9
19836,167.7
19837,216.5
19838,208.9
19840,192.3
19841,165.1
19845,212.6
19847,187.6
19849,204.7
19850,193.4
19851,205.3
19852,214.7
19858,175.5
19859,148.3
19860,214.5
19861,145.9
19863,178.0
19866,148.5
19867,196.3
19869,173.8
19870,144.2
19871,142.9
19872,189.3
19874,153.6
19876,157.4
19877,147.4
19879,162.9
19881,146.9
19883,217.7
19884,168.5
19886,207.9
19888,173.8
19890,193.4
19897,162.3
19898,158.6
19903,193.2
19904,178.0
19907,181.5
19909,193.1
19910,198.4
19912,218.8
19913,214.0
19916,169.9
19917,154.8
19918,152.9
19920,185.4
19922,148.7
19923,202.1
19924,142.1
19925,156.9
19928,158.7
19931,185.7
19932,159.5
19936,140.1
19937,214.9
19938,144.4
19941,189.4
19942,203.8
19943,186.7
19944,167.7
19946,170.8
19947,172.3
19948,167.8
19952,197.5
19956,197.4
19957,154.8
19958,216.6
19959,189.1
19965,191.8
19967,176.5
19969,148.3
19972,185.7
19976,176.4
19979,216.9
19984,209.5
19985,170.2
19986,201.1
19992,195.6
19994,152.4
19997,180.5
19998,154.8
19999,197.4
20002,152.2
20005,213.5
20006,203.4
20009,204.9
20011,205.8
20012,175.4
20014,207.7
20015,170.1
20020,166.4
20023,192.9
20024,206.8
20025,162.5
20026,152.3
20027,178.3
20029,205.0
20030,184.3
20033,193.1
20039,160.0
20040,160.9
20044,146.3
20048,214.0
20051,159.3
20052,175.4
20054,186.1
20055,203.3
20056,211.6
20059,178.5
20060,188.7
20061,175.2
20062,142.7
20066,165.1
20067,140.5
20069,169.1
20073,191.3
20074,178.2
20077,158.3
20079,162.5
20080,165.6
20083,188.6
20086,149.5
20087,197.4
20088,171.1
20090,167.1
20091,171.5
20093,167.7
20094,204.9
20098,184.6
20099,155.0
20100,210.2
20103,200.0
20104,171.5
20105,172.1
20107,180.5
20108,205.6
20109,182.8
20111,187.7
20112,141.2
20114,215.1
20115,193.0
20117,190.3
20119,166.2
20120,180.5
20121,178.9
20125,207.8
20127,158.5
20128,197.4
20130,160.0
20131,150.6
20132,195.6
20133,165.1
20136,218.6
20139,197.9
20141,218.8
20142,171.8
20143,199.8
20145,217.2
20147,185.7
20151,169.0
20153,150.1
20154,206.7
20155,191.9
20157,166.3
20160,189.7
20161,183.1
20163,153.9
20164,218.8
20165,140.6
20166,193.3
20167,202.7
20169,203.7
20173,148.9
20174,167.7
20176,201.7
20177,144.4
20183,205.4
20185,173.9
20188,196.0
20189,173.2
20190,207.7
20192,176.8
20194,184.9
20195,203.0
20197,217.4
20198,199.8
20201,183.1
20202,190.1
20206,146.6
20208,215.8
20209,208.4
20211,140.1
20212,193.8
20213,184.5
20214,157.4
20216,151.2
20217,201.1
20220,182.5
20222,164.2
20225,217.7
20227,206.6
20228,190.0
20229,185.7
20230,201.1
20231,194.9
20232,211.2
20234,196.7
20236,184.9
20237,172.4
20238,150.2
20239,193.9
20242,175.4
20246,157.4
20247,144.9
20248,193.2
20250,182.3
20251,179.5
20253,211.1
20254,218.3
20255,160.0
20256,215.9
20257,159.6
20258,219.3
20262,208.5
20263,215.1
20264,217.6
20267,198.0
20269,193.4
20270,145.6
20271,151.1
20275,219.0
20277,201.8
20279,182.4
20281,150.9
20282,170.2
20285,151.2
20286,172.9
20287,200.1
20288,182.1
20293,218.7
20296,149.7
20304,205.8
20305,149.7
20306,170.8
20308,191.0
20310,180.5
20312,190.2
20313,197.4
20314,206.3
20317,152.4
20318,173.1
20323,162.5
20324,201.2
20330,195.2
20331,174.9
20336,149.7
20338,159.1
20343,180.5
20347,165.3
20348,190.1
20349,175.4
20355,187.3
20356,173.1
20357,177.0
20358,161.9
20360,206.9
20363,151.8
20364,157.4
20366,202.5
20367,193.3
20368,197.0
20370,198.7
20372,192.7
20373,218.2
20374,151.2
20376,212.0
20377,149.7
20378,151.9
20381,210.9
20382,204.4
20383,204.4
20384,212.9
20385,154.0
20386,211.0
20388,159.2
20390,170.2
20391,186.7
20395,188.4
20397,190.0
20399,165.7
20400,208.8
20404,170.2
20407,214.9
20408,165.0
20409,212.6
20411,173.2
20413,160.6
20414,164.1
20415,181.6
20417,172.8
20420,200.8
20421,159.9
20424,213.7
20426,190.4
20431,175.4
20434,201.3
20438,198.4
20439,174.8
20441,149.0
20442,217.8
20445,178.0
20446,149.3
20450,164.7
20451,217.7
20453,157.7
20454,174.1
20455,141.9
20458,170.2
20459,196.6
20462,142.0
20463,185.0
20464,178.3
20466,207.3
20467,165.4
20469,167.8
20471,162.5
20473,194.0
20475,202.5
20480,144.5
20482,191.2
20483,171.1
20484,211.1
20485,180.5
20489,202.4
20491,182.5
20492,214.3
20494,144.2
20495,213.8
20497,186.2
20498,195.0
20499,188.3
20507,141.3
20508,198.4
20509,216.4
20511,216.3
20512,165.1
20513,177.4
20514,149.3
20519,154.3
20520,198.0
20521,171.7
20522,198.0
20524,157.3
20526,188.3
20532,155.2
20534,180.7
20536,145.8
20539,180.5
20541,203.7
20543,154.0
20544,165.6
20546,192.6
20547,187.2
20549,216.1
20550,177.5
20552,165.1
20554,158.2
20555,176.4
20556,213.4
20558,185.7
20559,188.1
20560,168.7
20561,179.1
20563,186.3
20567,198.5
20568,201.1
20569,145.4
20572,216.9
20577,205.3
20580,183.1
20581,160.4
20582,176.1
20583,194.6
20585,145.9
20587,178.4
20588,157.3
20590,171.3
20591,213.8
20593,154.8
20595,140.9
20596,196.8
20597,174.1
20599,216.9
20600,171.4
20603,192.2
20606,190.8
20609,209.0
20611,148.3
20615,152.8
20619,215.8
20620,178.0
20621,163.3
20622,208.0
20627,156.4
20632,142.5
20634,160.0
20635,141.2
20638,143.4
20639,171.8
20641,159.9
20646,199.4
20647,188.3
20648,180.7
20649,151.7
20650,217.1
20653,190.3
20654,219.5
20656,184.7
20660,180.9
20661,167.7
20662,157.9
20663,212.7
20664,209.2
20665,203.9
20666,143.1
20667,177.7
20668,197.3
20672,182.0
20674,149.7
20676,146.7
20677,190.9
20678,158.4
20682,174.1
20683,168.3
20684,213.6
20687,178.0
20690,183.6
20693,151.9
20694,140.2
20695,150.7
20696,145.1
20697,175.9
20699,141.8
20700,163.6
20702,162.5
20703,183.6
20704,160.3
20707,193.9
20708,174.9
20709,197.3
20710,179.2
20712,195.9
20713,201.0
20715,154.8
20719,156.7
20721,171.6
20724,145.3
20725,190.0
20728,178.0
20731,198.5
20734,168.3
20735,147.3
20737,196.7
20738,141.5
20740,169.1
20742,167.7
20747,146.5
20754,181.1
20755,165.1
20757,189.5
20758,195.1
20764,201.5
20765,196.8
20766,150.3
20767,210.2
20769,178.0
20771,156.6
20772,143.8
20773,156.8
20777,140.9
20779,176.1
20781,150.3
20782,165.8
20783,180.5
20791,152.3
20793,192.3
20795,158.5
20796,172.8
20797,196.4
20798,155.2
20805,161.7
20807,151.4
20808,205.5
20809,165.1
20813,162.0
20816,219.7
20817,166.5
20821,156.4
20822,149.2
20823,178.0
20824,174.8
20825,185.9
20828,208.0
20830,184.8
20831,209.2
20835,148.9
20837,185.7
