0,10.8
1,34.5
2,13.3
4,31.8
5,41.6
6,24.3
7,31.3
9,25.8
10,13.3
11,22.6
12,-2.1
14,-20.1
17,18.5
19,24.2
20,6.0
21,17.1
24,27.0
25,9.4
26,36.5
27,19.1
31,18.4
32,12.1
35,8.2
36,11.5
37,31.8
40,36.8
41,10.8
42,32.8
44,41.6
46,24.1
48,16.7
50,30.1
53,-15.0
54,35.7
56,11.1
58,20.0
59,33.7
61,6.7
64,41.6
68,15.1
69,7.8
73,-15.0
76,24.8
78,21.9
79,30.8
81,31.3
83,41.6
84,17.3
86,17.1
90,7.5
93,-12.4
94,18.3
95,14.1
97,29.6
99,4.0
103,39.1
106,6.5
108,9.1
111,20.7
112,9.2
113,-17.5
116,33.7
120,27.7
121,9.0
122,26.2
125,41.6
129,32.0
130,28.1
132,11.4
136,10.8
137,33.6
146,36.5
147,19.2
148,23.8
149,32.3
155,21.4
156,18.5
158,14.7
160,35.0
162,28.3
163,27.1
164,17.4
165,33.6
166,28.8
169,20.3
170,7.1
177,21.0
184,5.4
186,28.9
187,23.6
193,27.9
198,15.9
201,31.2
202,9.5
205,24.9
208,15.9
210,34.8
211,21.2
212,32.3
213,30.8
214,12.2
216,6.5
219,10.8
225,8.2
226,24.0
228,35.6
229,10.8
230,7.9
231,34.3
232,26.9
234,15.6
235,23.6
236,23.1
238,21.6
239,5.6
241,12.1
242,26.9
244,15.5
246,20.4
248,13.3
249,28.2
251,4.5
255,27.6
256,28.2
258,27.1
260,8.2
261,16.4
263,27.0
264,31.1
267,21.6
269,13.3
272,29.2
273,24.2
275,15.7
276,31.4
279,10.8
284,8.6
285,18.8
289,8.2
294,14.2
295,20.7
296,22.7
297,35.4
298,15.3
299,10.8
300,11.4
305,13.0
306,18.4
308,25.0
309,10.8
310,29.2
313,28.4
314,33.3
316,23.1
317,24.1
318,18.7
319,3.0
321,24.7
322,8.7
329,10.8
330,24.4
338,18.0
339,3.0
341,36.6
344,14.0
345,29.2
348,22.9
349,13.3
351,17.1
357,4.7
359,5.6
360,4.1
363,29.8
365,19.1
366,26.6
367,20.4
368,15.9
369,22.5
371,26.6
372,32.1
374,13.4
375,13.1
376,35.5
377,10.4
378,8.2
381,24.1
382,20.6
383,14.0
384,17.6
385,12.0
387,31.7
388,13.3
389,21.1
391,24.8
393,10.8
395,28.2
396,21.7
399,8.2
404,21.6
408,15.9
409,36.9
410,13.7
412,23.3
414,4.9
416,13.6
418,10.8
419,4.3
421,24.0
424,25.9
428,21.0
429,10.8
432,17.0
433,4.3
435,35.8
439,3.0
440,7.9
446,33.3
448,10.8
450,5.0
451,17.1
452,35.7
459,5.6
461,5.3
462,17.2
465,22.2
468,13.3
469,33.8
470,4.6
471,22.0
473,12.9
475,31.5
478,15.8
479,5.6
480,7.4
481,11.3
484,22.4
485,21.8
486,22.3
487,32.9
488,13.3
489,30.5
491,14.9
495,14.1
498,8.2
499,30.9
500,22.2
503,24.4
507,15.9
508,28.3
509,12.6
512,32.2
513,36.8
514,22.3
515,17.7
518,8.2
521,32.6
522,4.5
524,34.5
525,18.8
526,16.2
528,15.9
530,4.4
532,4.0
534,5.5
536,15.4
538,10.8
540,16.9
541,26.4
546,7.4
547,33.3
548,10.8
549,29.7
557,15.7
559,3.0
560,10.7
561,34.1
565,35.4
568,10.8
569,16.8
573,7.2
575,12.6
578,5.6
579,22.7
580,31.2
581,36.3
584,25.9
586,33.6
587,10.8
591,13.7
593,18.8
594,5.7
595,29.1
596,34.2
597,34.1
599,5.6
601,25.6
602,21.5
603,9.3
608,15.9
612,33.0
613,30.5
616,5.0
618,8.2
619,24.8
620,10.7
621,16.3
622,26.7
623,5.6
624,13.0
627,15.9
628,13.8
629,35.3
631,12.3
637,8.2
638,23.8
642,35.0
643,17.0
644,13.1
646,15.3
647,15.9
651,17.9
652,33.8
654,17.2
656,34.2
658,10.8
664,9.4
667,35.0
668,8.2
670,16.5
671,30.0
672,8.2
673,14.7
675,15.4
677,13.3
678,23.7
680,32.8
681,8.5
682,34.8
683,29.3
684,10.1
687,32.2
688,10.8
690,8.1
694,4.3
697,11.8
698,5.6
699,34.8
703,25.4
704,13.7
705,30.2
707,10.8
708,12.5
709,14.1
710,33.7
711,14.0
714,13.5
715,29.9
717,5.6
721,16.3
723,11.4
724,18.4
726,9.6
728,13.3
729,32.0
730,31.0
731,21.6
737,14.3
738,8.2
744,20.1
745,6.7
747,15.9
751,8.5
753,15.0
754,15.5
755,7.4
757,10.8
758,27.2
763,32.4
764,23.7
765,4.1
766,12.2
768,8.2
769,8.2
774,10.1
775,7.0
776,32.7
777,10.8
778,34.7
779,29.7
781,11.8
783,29.7
784,8.7
785,36.0
787,10.8
788,20.3
790,18.0
791,12.9
797,25.2
798,5.6
800,28.1
801,24.4
805,22.3
807,10.8
809,27.5
810,14.6
811,14.7
812,10.0
817,26.1
818,5.6
821,9.6
822,31.8
827,10.8
829,8.6
832,32.4
835,7.3
837,8.2
839,7.8
840,20.6
842,20.1
845,24.3
846,15.9
847,18.8
850,5.8
851,34.2
852,21.5
854,25.0
857,16.0
858,10.8
859,23.8
862,12.5
864,19.0
866,12.9
868,5.6
869,11.6
870,16.1
872,11.1
876,29.5
877,8.2
879,13.8
880,32.8
884,28.1
886,15.9
888,32.2
892,13.8
893,31.5
894,31.9
895,7.9
896,23.2
897,10.8
899,27.2
901,36.3
904,19.2
906,12.6
907,10.8
910,32.0
911,23.9
914,5.2
917,3.0
921,11.6
922,20.8
924,5.0
927,10.8
928,10.4
929,21.5
933,17.9
934,32.8
935,6.3
936,10.6
937,5.6
941,31.2
945,21.2
947,13.3
948,23.8
950,10.0
952,34.9
955,20.9
957,5.6
959,20.7
961,33.4
962,30.8
966,13.3
968,22.4
970,15.6
972,9.7
974,21.9
976,8.2
981,10.5
982,13.4
985,22.3
986,15.9
989,10.1
991,26.6
993,14.3
997,10.8
998,8.0
999,26.8
1000,17.5
1001,31.4
1002,11.0
1003,14.8
1006,11.5
1007,8.2
1008,30.8
1009,29.9
1010,5.7
1016,20.9
1017,3.0
1018,32.5
1020,15.8
1022,26.6
1024,10.2
1025,13.2
1026,16.6
1027,6.9
1028,3.0
1031,19.8
1032,28.5
1034,34.8
1036,23.6
1037,17.1
1038,-4.7
1039,34.8
1040,36.6
1041,11.4
1042,30.8
1048,8.5
1049,-12.4
1051,24.0
1052,12.5
1061,16.4
1062,39.1
1063,30.2
1066,12.6
1067,33.9
1072,5.7
1074,21.0
1075,23.4
1076,23.3
1078,5.0
1079,5.2
1080,5.6
1085,21.0
1086,23.7
1087,15.2
1090,11.5
1092,4.6
1093,33.9
1096,8.2
1097,31.5
1098,26.6
1100,15.2
1102,7.1
1106,8.2
1111,6.8
1115,23.6
1117,0.5
1121,25.9
1122,13.6
1124,13.5
1127,25.5
1128,3.0
1129,16.9
1131,28.3
1134,21.0
1135,21.1
1138,3.0
1139,24.4
1140,35.0
1143,31.7
1144,24.3
1145,19.1
1148,-4.7
1149,16.2
1150,9.6
1153,34.1
1154,16.2
1158,29.6
1160,41.6
1161,20.2
1162,25.0
1164,22.8
1166,28.9
1167,8.2
1171,-9.8
1173,21.1
1174,7.7
1178,23.5
1180,9.9
1181,6.4
1182,33.9
1184,28.6
1185,19.3
1187,21.8
1189,25.8
1190,25.9
1191,24.8
1193,6.4
1194,8.5
1195,18.5
1197,21.5
1198,10.2
1199,24.1
1200,32.4
1201,33.7
1206,13.3
1207,19.3
1210,34.6
1212,28.8
1214,21.5
1215,34.2
1217,0.5
1218,12.7
1219,14.8
1221,7.3
1222,12.8
1223,34.6
1227,0.5
1229,18.0
1230,29.1
1231,9.3
1233,36.8
1234,36.4
1238,8.2
1239,7.5
1241,10.0
1247,11.2
1248,-7.2
1250,5.0
1251,21.4
1252,15.3
1253,18.3
1255,21.7
1257,29.6
1259,23.1
1260,41.6
1261,24.1
1266,36.5
1268,31.5
1269,6.6
1271,-4.7
1273,35.2
1275,15.1
1277,4.4
1279,31.1
1280,28.4
1283,33.9
1288,24.4
1289,34.3
1290,35.9
1292,27.8
1294,18.5
1297,24.8
1301,9.5
1305,13.3
1308,7.5
1311,19.4
1315,5.6
1316,-2.1
1318,14.4
1319,22.5
1320,18.0
1323,18.0
1325,10.9
1326,31.2
1329,-7.2
1330,16.3
1340,44.2
1341,24.7
1342,25.7
1351,3.0
1357,28.6
1358,21.8
1359,4.7
1361,36.5
1362,27.8
1365,35.7
1367,4.4
1368,31.6
1369,14.5
1371,8.2
1372,17.0
1373,18.5
1375,28.6
1376,8.0
1381,23.0
1383,30.0
1384,18.5
1386,6.6
1387,12.2
1390,32.3
1391,8.1
1392,22.9
1394,19.7
1396,3.0
1401,8.4
1403,32.6
1406,3.0
1407,15.5
1413,12.0
1414,18.1
1417,-2.1
1419,22.9
1420,26.8
1423,14.8
1424,21.7
1425,7.3
1426,20.6
1428,-7.2
1431,8.1
1432,13.4
1436,6.0
1438,8.5
1439,41.6
1440,11.0
1442,19.2
1443,17.2
1444,33.9
1445,34.8
1447,30.2
1450,21.5
1451,5.6
1452,10.8
1453,29.0
1454,8.6
1459,18.5
1461,11.2
1462,36.5
1463,15.5
1465,27.8
1468,17.2
1473,18.5
1474,12.1
1478,15.7
1479,30.3
1481,6.0
1484,18.5
1485,4.2
1486,15.0
1487,14.6
1489,32.8
1493,28.8
1494,36.0
1495,7.0
1496,3.0
1506,3.0
1507,24.9
1509,13.6
1510,26.0
1511,6.8
1513,15.0
1515,16.7
1516,-2.1
1517,16.4
1519,23.3
1525,22.7
1528,-9.8
1529,15.8
1531,30.1
1532,7.8
1533,16.5
1535,12.1
1537,35.6
1540,44.2
1541,24.2
1544,25.8
1545,31.7
1547,34.1
1548,19.6
1549,10.0
1550,4.9
1551,8.2
1555,9.2
1556,23.6
1561,36.5
1562,36.9
1563,25.5
1564,17.5
1565,15.3
1570,12.2
1572,21.0
1577,9.8
1578,6.7
1580,30.6
1583,12.5
1584,15.9
1585,31.0
1587,26.5
1588,6.5
1591,33.5
1592,24.6
1595,27.0
1596,3.0
1597,35.6
1598,14.7
1604,33.4
1605,15.0
1606,3.0
1610,32.8
1611,24.9
1616,-2.1
1618,13.9
1619,31.3
1621,5.4
1628,-9.8
1629,16.3
1630,8.1
1631,10.2
1634,22.5
1636,4.0
1637,20.2
1638,11.1
1639,44.2
1641,12.7
1642,20.1
1644,10.9
1650,13.3
1652,8.4
1653,32.3
1654,32.8
1655,12.7
1657,12.6
1659,12.9
1660,7.8
1661,28.9
1662,28.8
1663,11.6
1667,14.5
1669,11.0
1670,4.7
1671,17.6
1673,30.3
1674,13.3
1676,17.8
1680,17.3
1682,26.9
1683,32.4
1685,5.6
1686,25.8
1688,24.0
1689,35.9
1691,34.4
1692,22.8
1695,0.5
1697,9.7
1698,21.7
1700,32.3
1703,35.0
1704,20.8
1705,0.5
1706,29.3
1707,32.7
1710,28.9
1711,15.6
1712,32.2
1714,11.8
1716,5.6
1721,31.4
1722,14.8
1723,28.7
1724,19.0
1725,31.9
1727,-4.7
1728,8.1
1731,12.8
1732,10.5
1733,25.2
1734,18.0
1736,22.2
1738,41.6
1739,22.5
1741,8.0
1744,7.5
1745,16.7
1747,31.5
1749,12.9
1750,-7.2
1751,27.8
1754,31.4
1756,10.7
1760,35.3
1761,33.9
1762,23.5
1763,29.1
1765,33.7
1767,20.7
1772,18.5
1775,10.8
1776,19.5
1780,25.5
1783,13.3
1786,15.9
1792,20.9
1794,28.2
1795,11.1
1796,-2.1
1797,13.4
1799,19.7
1800,4.5
1801,12.3
1802,11.7
1803,4.3
1807,-7.2
1810,4.4
1811,34.1
1812,35.1
1813,15.5
1815,20.9
1817,25.0
1818,41.6
1819,17.8
1820,4.8
1822,22.0
1829,0.5
1830,17.1
1837,15.5
1838,30.0
1839,36.0
1840,36.5
1843,34.5
1844,6.2
1846,32.0
1847,32.5
1848,11.7
1850,6.8
1851,21.0
1853,5.2
1856,25.5
1862,18.9
1863,15.9
1864,8.4
1865,12.9
1866,13.2
1867,4.6
1870,27.3
1873,20.3
1874,5.6
1877,23.5
1878,27.2
1880,7.3
1883,11.1
1885,5.6
1886,12.9
1887,36.9
1888,11.9
1889,22.2
1893,6.5
1894,24.5
1895,0.5
1896,27.6
1900,14.2
1903,35.5
1905,-2.1
1906,34.5
1908,8.8
1909,13.1
1910,35.4
1912,4.9
1914,28.1
1915,22.4
1916,36.5
1917,9.0
1920,16.9
1928,12.4
1929,-22.7
1931,34.8
1936,17.4
1937,10.0
1940,16.3
1941,28.8
1944,36.7
1948,31.8
1949,30.2
1952,15.9
1954,10.1
1955,4.5
1959,31.5
1960,26.9
1964,10.8
1965,26.2
1969,9.7
1973,7.3
1975,-2.1
1981,21.6
1982,24.5
1983,5.2
1984,14.1
1986,-9.8
1987,21.4
1992,7.3
1993,16.6
1998,41.6
2001,5.7
2003,4.4
2004,22.0
2008,18.8
2009,25.5
2010,10.8
2012,5.9
2013,34.7
2015,29.7
2020,5.0
2021,28.8
2024,15.1
2025,30.1
2027,16.9
2028,30.5
2029,27.8
2030,6.3
2031,15.9
2032,13.3
2034,17.5
2035,21.9
2037,5.0
2039,15.2
2043,8.2
2044,19.7
2047,14.3
2048,6.0
2050,20.3
2051,8.5
2055,3.0
2057,35.5
2060,22.6
2065,0.5
2066,4.4
2068,30.4
2069,11.1
2070,19.2
2073,10.3
2074,29.7
2075,3.0
2076,25.6
2081,9.7
2083,7.1
2085,-4.7
2086,10.7
2088,30.8
2089,22.7
2091,28.5
2092,19.6
2093,6.5
2095,16.9
2096,8.7
2097,39.1
2098,8.0
2099,30.5
2102,12.4
2103,32.7
2105,27.4
2107,13.2
2108,-9.8
2109,17.4
2110,7.7
2114,20.4
2115,22.8
2116,22.1
2118,36.8
2119,33.9
2120,6.3
2122,31.5
2123,19.0
2124,14.1
2125,17.4
2126,36.4
2127,8.8
2130,11.4
2131,21.0
2134,14.0
2138,32.3
2139,34.7
2140,8.3
2141,15.9
2142,7.1
2143,13.3
2145,17.1
2146,8.8
2147,10.0
2150,34.1
2152,12.9
2153,6.7
2154,0.5
2155,35.5
2157,34.2
2160,25.9
2162,4.6
2163,13.0
2164,0.5
2170,28.5
2173,18.7
2174,5.6
2175,31.8
2176,33.1
2179,16.4
2183,4.7
2184,26.3
2185,-7.2
2191,17.9
2193,24.6
2196,14.4
2197,41.6
2198,11.4
2202,8.3
2204,17.5
2208,-4.7
2209,25.5
2212,23.9
2215,13.9
2216,22.4
2217,36.0
2218,26.3
2220,33.9
2221,12.9
2223,15.4
2225,26.8
2228,23.3
2231,18.5
2236,15.6
2239,16.6
2241,8.3
2242,13.3
2243,7.5
2246,26.0
2247,14.5
2249,34.7
2251,23.2
2252,31.8
2254,0.5
2255,9.6
2257,18.2
2259,33.1
2260,36.8
2261,27.2
2262,28.2
2263,30.5
2265,0.5
2269,33.2
2271,12.4
2272,22.3
2275,13.3
2277,30.1
2279,34.0
2281,21.0
2282,17.9
2284,11.1
2286,-15.0
2287,16.5
2290,5.9
2291,4.3
2292,21.3
2293,14.3
2294,12.5
2298,36.5
2299,20.9
2302,11.6
2303,31.1
2305,22.4
2306,6.9
2308,22.6
2310,21.0
2315,22.9
2319,20.2
2320,24.5
2322,18.5
2324,22.7
2325,6.8
2326,13.9
2327,5.7
2328,22.9
2329,28.0
2331,21.5
2333,3.0
2336,31.2
2337,33.5
2338,36.2
2340,17.0
2341,35.7
2343,5.6
2344,24.6
2345,31.5
2348,29.9
2349,36.3
2352,13.2
2354,-2.1
2356,12.9
2362,18.4
2364,18.8
2365,-9.8
2367,35.4
2368,20.6
2370,7.9
2371,22.9
2372,21.4
2373,14.5
2376,41.6
2379,18.2
2381,8.9
2382,32.2
2383,9.5
2384,36.9
2386,10.6
2388,8.2
2394,28.0
2398,26.6
2399,36.5
2400,28.5
2401,32.6
2407,15.9
2410,21.0
2411,14.9
2417,33.0
2418,29.1
2419,4.1
2421,15.9
2423,4.7
2425,22.1
2426,16.4
2430,30.2
2431,28.5
2433,5.6
2435,36.8
2437,19.0
2438,23.6
2440,24.2
2443,3.0
2448,4.1
2449,21.2
2450,29.3
2452,22.7
2453,7.0
2454,-2.1
2455,12.3
2456,17.4
2457,4.1
2459,23.1
2464,32.2
2465,-12.4
2467,7.0
2468,22.7
2469,28.5
2471,9.0
2473,11.8
2478,39.1
2481,26.6
2489,21.0
2490,10.7
2493,19.1
2497,31.4
2500,21.0
2502,26.2
2504,35.2
2510,23.0
2511,8.2
2512,19.2
2513,27.6
2515,5.5
2517,4.3
2519,30.2
2522,15.1
2523,8.2
2524,21.9
2525,31.8
2527,6.7
2528,32.2
2533,3.0
2537,34.0
2538,18.0
2543,0.5
2547,37.0
2548,16.8
2551,5.3
2553,-2.1
2559,4.8
2560,23.7
2561,31.8
2563,23.5
2565,-12.4
2568,13.2
2574,11.2
2577,39.1
2578,18.3
2581,33.4
2582,27.9
2583,12.1
2585,18.7
2586,34.7
2587,21.3
2589,18.5
2591,6.8
2592,7.1
2595,23.9
2597,25.3
2599,26.9
2600,21.0
2602,14.9
2608,8.7
2609,22.9
2611,30.6
2612,5.6
2614,9.0
2615,4.6
2620,25.0
2622,5.6
2626,30.6
2630,25.9
2632,0.5
2634,6.3
2635,10.7
2637,29.2
2639,13.2
2640,17.6
2641,18.7
2642,3.0
2644,16.4
2645,23.0
2646,23.7
2649,13.4
2652,33.4
2653,13.0
2654,5.6
2656,17.3
2657,18.6
2659,27.6
2661,7.2
2662,22.2
2664,-7.2
2665,12.8
2667,25.3
2670,4.5
2672,8.6
2675,41.6
2679,29.4
2680,34.0
2682,26.7
2683,9.0
2684,8.5
2686,-4.7
2688,11.3
2689,18.7
2693,34.4
2696,13.5
2698,31.3
2701,4.0
2703,35.7
2706,16.9
2707,5.1
2708,15.4
2709,18.5
2710,33.3
2711,20.4
2712,26.7
2715,33.9
2720,19.4
2721,13.3
2725,30.1
2726,15.8
2728,36.0
2731,17.6
2733,0.5
2734,9.3
2735,34.7
2736,15.4
2737,19.0
2738,4.3
2741,6.9
2743,0.5
2744,24.5
2745,36.8
2746,22.5
2747,8.6
2750,27.1
2753,10.8
2754,7.5
2756,7.8
2763,17.8
2764,-15.0
2765,6.3
2767,9.8
2768,24.8
2772,14.8
2773,22.6
2774,13.5
2775,32.6
2776,17.1
2777,39.1
2779,33.2
2780,6.0
2784,23.9
2785,11.2
2789,21.0
2790,12.7
2797,17.5
2800,18.5
2802,5.8
2804,8.2
2805,12.0
2806,8.7
2807,6.9
2809,7.0
2811,3.0
2812,33.0
2813,33.9
2816,10.6
2819,33.8
2820,22.7
2821,36.7
2822,5.6
2825,24.7
2828,6.3
2829,7.0
2831,5.0
2832,0.5
2834,33.8
2836,35.2
2838,27.6
2839,4.4
2840,28.3
2842,-2.1
2844,18.4
2849,14.7
2850,35.5
2852,29.5
2854,36.5
2855,28.1
2856,36.1
2857,12.5
2858,16.6
2860,5.5
2862,32.9
2864,25.6
2866,-20.1
2868,33.5
2869,36.3
2875,17.8
2878,31.3
2879,11.2
2880,24.9
2884,16.6
2885,35.9
2886,7.5
2887,6.9
2888,11.8
2889,15.9
2890,16.1
2891,27.7
2893,30.4
2894,36.4
2898,35.8
2900,8.2
2902,14.2
2903,31.9
2906,12.6
2911,3.0
2912,15.5
2914,35.7
2916,6.7
2917,37.0
2921,21.6
2922,5.6
2925,9.4
2927,14.5
2928,7.4
2929,26.4
2930,31.3
2932,-2.1
2935,26.0
2937,10.0
2938,19.0
2939,4.1
2941,16.9
2943,17.8
2944,-9.8
2945,30.7
2948,34.9
2950,34.8
2953,29.8
2954,35.4
2955,44.2
2960,32.2
2961,13.1
2965,6.5
2966,5.6
2968,34.6
2971,33.0
2972,33.2
2973,17.5
2974,22.0
2975,20.9
2976,36.5
2977,31.9
2979,30.1
2980,13.7
2982,19.4
2983,6.7
2989,18.5
3000,15.9
3011,3.0
3012,9.3
3013,6.0
3015,10.9
3017,4.5
3020,17.6
3021,3.0
3023,34.8
3025,30.6
3026,14.0
3027,22.7
3029,36.8
3030,36.1
3031,8.1
3032,-2.1
3033,14.3
3034,13.0
3035,10.9
3037,5.8
3038,28.0
3039,33.0
3040,28.9
3041,22.1
3043,-9.8
3044,35.3
3046,9.0
3049,15.1
3052,25.0
3054,31.8
3055,41.6
3056,24.0
3058,28.8
3060,9.4
3061,12.5
3062,29.9
3063,4.6
3064,17.2
3066,10.8
3067,26.8
3070,30.4
3071,25.2
3074,6.9
3077,8.1
3078,28.8
3079,26.1
3081,24.2
3086,29.5
3089,13.3
3090,22.0
3092,6.7
3096,8.8
3099,12.2
3100,8.2
3103,32.3
3104,18.2
3107,14.1
3110,3.0
3112,15.1
3114,23.4
3119,13.5
3121,32.9
3122,3.0
3123,20.6
3124,9.9
3130,6.1
3132,3.0
3134,21.1
3136,23.4
3138,17.9
3139,4.8
3142,-4.7
3144,17.4
3145,12.6
3146,29.5
3147,15.5
3148,7.2
3152,7.3
3153,39.1
3154,5.4
3158,7.0
3160,30.9
3161,16.2
3163,10.5
3165,-9.8
3166,28.7
3167,6.7
3168,28.0
3169,12.2
3170,5.0
3171,27.4
3172,5.7
3174,24.2
3175,35.4
3176,33.9
3177,18.0
3179,31.2
3180,11.9
3181,8.7
3186,27.5
3187,25.2
3188,21.0
3189,20.7
3191,5.7
3192,5.9
3194,9.4
3196,37.0
3197,10.7
3199,23.6
3200,13.3
3202,22.2
3203,23.5
3207,23.9
3209,35.6
3211,3.0
3213,6.6
3215,30.7
3219,5.1
3220,4.4
3221,0.5
3222,13.8
3223,34.9
3224,30.8
3229,11.9
3230,28.8
3231,8.2
3232,20.4
3235,7.3
3237,31.1
3238,29.1
3240,22.3
3241,-4.7
3242,5.5
3245,28.7
3246,33.2
3248,29.0
3249,33.2
3250,9.1
3252,36.6
3254,41.6
3257,15.7
3259,27.6
3264,36.3
3265,-7.2
3266,36.7
3270,27.8
3272,12.5
3274,23.2
3275,13.4
3276,33.9
3277,36.3
3279,19.4
3280,21.3
3282,32.6
3284,34.4
3286,24.7
3287,6.5
3288,18.5
3289,35.6
3290,15.2
3291,15.1
3292,9.5
3293,7.9
3294,19.6
3299,13.3
3300,9.5
3302,21.4
3303,32.6
3305,18.6
3306,28.6
3309,19.6
3310,0.5
3311,29.7
3312,23.8
3314,5.9
3315,11.5
3316,7.7
3317,17.7
3318,18.1
3321,0.5
3322,22.2
3324,20.9
3325,29.7
3327,19.5
3328,31.5
3329,8.3
3332,10.8
3335,10.7
3338,23.7
3339,29.0
3341,24.9
3343,-12.4
3344,16.7
3345,19.9
3355,36.5
3356,29.6
3361,21.7
3365,20.0
3366,21.0
3370,31.6
3377,5.3
3378,18.5
3385,33.0
3386,22.5
3388,7.5
3390,3.0
3393,33.8
3394,10.0
3398,13.5
3399,4.5
3400,5.6
3401,27.9
3405,22.1
3406,29.9
3408,19.4
3409,36.0
3410,-2.1
3412,5.0
3415,9.6
3416,12.5
3418,32.6
3422,-9.8
3423,10.4
3425,29.3
3428,11.0
3432,17.0
3433,41.6
3437,10.1
3440,36.0
3441,8.0
3444,8.2
3447,23.3
3451,30.0
3452,16.7
3453,26.1
3454,16.6
3455,15.6
3456,36.5
3457,19.0
3458,17.1
3459,19.6
3461,16.8
3467,21.0
3468,18.6
3470,26.5
3471,6.2
3472,24.5
3473,7.9
3474,23.1
3475,36.4
3476,34.7
3478,15.9
3480,27.0
3484,35.0
3486,35.1
3489,5.6
3491,7.0
3493,5.8
3494,7.8
3497,17.4
3498,13.8
3500,3.0
3503,8.8
3504,6.4
3510,-2.1
3511,19.9
3513,4.3
3515,10.5
3516,5.5
3520,35.1
3521,30.8
3522,-9.8
3523,21.2
3525,12.5
3533,44.2
3534,29.8
3535,13.3
3539,11.0
3540,28.7
3542,7.7
3545,10.8
3546,21.8
3548,11.3
3549,8.5
3551,21.9
3553,13.7
3555,6.2
3556,28.8
3557,4.8
3559,13.9
3561,7.5
3566,18.0
3567,15.9
3568,30.7
3570,6.5
3572,4.5
3578,8.2
3581,32.3
3587,5.5
3590,3.0
3591,7.3
3592,34.1
3593,16.4
3600,3.0
3601,27.7
3602,29.2
3607,27.6
3608,36.6
3609,27.0
3610,-2.1
3611,17.3
3614,30.2
3615,11.6
3617,32.6
3619,24.3
3621,-9.8
3623,14.9
3624,14.2
3626,7.0
3628,4.1
3633,41.6
3634,4.6
3638,7.9
3639,29.1
3642,34.1
3644,10.8
3648,17.9
3650,29.4
3654,9.1
3656,28.8
3657,20.7
3658,30.7
3659,30.0
3660,32.2
3661,8.0
3663,19.6
3667,13.3
3669,22.2
3670,14.6
3672,29.2
3673,32.5
3674,8.5
3675,29.4
3678,33.9
3679,8.2
3681,34.0
3683,14.9
3684,7.2
3686,11.7
3688,16.3
3689,0.5
3691,22.6
3695,20.7
3699,0.5
3701,15.3
3704,12.6
3709,3.0
3711,16.4
3712,35.0
3715,5.5
3717,26.2
3720,23.8
3721,-4.7
3722,9.3
3724,28.2
3727,4.6
3728,13.8
3730,13.7
3731,29.0
3732,39.1
3734,31.8
3737,16.2
3743,-7.2
3744,13.2
3746,29.5
3748,19.5
3751,5.2
3752,6.1
3755,33.9
3761,7.4
3762,19.2
3764,6.0
3765,20.5
3766,18.5
3768,8.0
3769,16.7
3770,12.7
3771,25.5
3772,21.5
3774,25.2
3775,11.6
3776,25.9
3777,13.3
3780,6.0
3781,7.2
3787,14.5
3789,0.5
3791,36.3
3792,21.5
3793,29.6
3794,33.3
3795,13.8
3796,6.4
3797,14.0
3799,31.9
3800,0.5
3802,27.3
3805,26.2
3809,16.6
3810,8.2
3816,9.3
3817,9.7
3820,-4.7
3822,12.6
3823,28.8
3824,26.6
3825,17.3
3826,8.9
3829,18.9
3831,41.6
3832,22.3
3835,31.5
3836,36.9
3838,18.8
3839,18.1
3840,8.5
3842,18.7
3843,-4.7
3844,33.4
3845,26.5
3848,8.7
3849,35.2
3851,32.4
3852,27.3
3855,33.9
3857,35.1
3858,10.9
3862,22.1
3866,18.5
3868,34.4
3869,19.7
3870,26.8
3872,15.8
3873,8.1
3877,13.3
3878,33.5
3882,18.2
3884,20.6
3887,19.7
3889,0.5
3891,5.7
3892,33.6
3893,26.9
3897,30.3
3898,21.1
3899,0.5
3904,34.9
3905,36.8
3907,23.5
3909,13.3
3911,11.7
3912,5.9
3915,15.0
3916,16.2
3918,11.8
3919,4.2
3920,30.0
3921,-15.0
3925,26.7
3926,35.1
3929,23.9
3930,8.8
3932,10.6
3933,17.8
3934,36.5
3937,6.8
3939,33.9
3941,23.7
3942,18.8
3943,35.4
3944,29.6
3945,18.5
3947,14.4
3949,26.5
3951,28.3
3953,17.6
3954,5.9
3955,19.6
3956,18.5
3961,23.6
3962,19.3
3964,27.5
3966,15.4
3967,9.2
3968,5.6
3971,32.1
3972,23.4
3974,32.5
3978,5.6
3980,12.0
3982,29.8
3986,12.6
3988,31.9
3989,-2.1
3992,19.7
3999,32.4
4000,-7.2
4001,28.7
4003,8.3
4005,28.0
4007,9.9
4009,27.3
4012,44.2
4016,9.8
4023,8.2
4024,25.2
4025,19.9
4030,7.5
4033,36.5
4035,6.5
4036,19.3
4039,16.2
4040,33.3
4042,18.1
4043,8.0
4044,21.0
4045,20.2
4047,18.0
4048,5.9
4049,13.7
4051,24.4
4052,21.9
4053,7.8
4057,18.5
4058,12.9
4061,22.2
4062,23.0
4064,11.7
4065,16.4
4068,3.0
4073,35.0
4077,31.6
4078,3.0
4080,35.5
4081,4.3
4082,23.3
4085,30.6
4086,10.2
4088,-2.1
4093,33.7
4096,28.6
4099,36.8
4100,-9.8
4101,36.5
4105,30.2
4110,4.5
4111,44.2
4113,36.9
4114,33.4
4115,10.1
4123,8.2
4126,17.1
4130,20.4
4133,36.5
4134,6.6
4138,17.9
4139,4.8
4140,6.4
4141,19.3
4144,33.3
4145,21.0
4148,4.6
4150,11.1
4151,36.9
4154,17.2
4156,15.9
4158,10.4
4159,33.3
4161,5.3
4163,15.3
4166,4.4
4167,3.0
4168,5.1
4172,23.2
4174,10.9
4177,0.5
4180,17.6
4186,19.1
4188,12.4
4189,0.5
4190,13.2
4194,23.1
4199,-4.7
4206,32.1
4207,32.5
4210,39.1
4215,18.5
4217,22.6
4220,29.8
4221,-9.8
4224,18.3
4228,12.0
4229,22.3
4230,21.8
4233,36.5
4236,35.6
4238,5.1
4239,17.1
4240,34.7
4244,18.5
4247,12.6
4248,9.2
4252,15.5
4256,13.3
4257,28.0
4259,31.0
4260,22.2
4261,7.6
4264,23.9
4265,28.4
4267,11.4
4268,0.5
4276,19.2
4277,9.2
4278,3.0
4282,29.0
4284,9.9
4285,32.4
4286,9.3
4288,3.0
4289,22.9
4290,31.1
4292,11.3
4293,25.5
4294,13.8
4298,-4.7
4303,29.5
4306,31.0
4307,6.0
4308,31.4
4309,27.7
4310,39.1
4312,18.9
4313,25.3
4314,31.2
4317,19.0
4320,9.5
4321,25.3
4322,-7.2
4323,15.7
4329,10.8
4330,20.1
4331,24.6
4332,24.7
4333,33.9
4334,16.3
4335,18.9
4336,4.0
4337,32.4
4338,18.4
4340,30.9
4341,17.8
4342,20.3
4344,21.0
4346,16.0
4347,17.6
4348,32.7
4350,9.6
4354,22.0
4355,25.9
4356,13.3
4357,34.4
4358,22.6
4360,31.8
4366,9.7
4367,0.5
4370,5.5
4371,10.1
4372,6.6
4373,16.3
4375,31.2
4377,-2.1
4378,13.9
4379,30.9
4382,24.4
4383,13.2
4385,21.9
4387,34.2
4388,23.3
4389,33.9
4394,9.7
4395,9.2
4396,35.6
4397,12.2
4399,9.7
4400,35.6
4401,-22.7
4403,12.1
4404,6.2
4406,9.1
4408,16.3
4409,25.5
4410,14.9
4413,31.3
4414,32.2
4416,6.0
4417,24.4
4422,28.1
4424,18.5
4429,36.6
4434,13.4
4435,10.8
4439,30.3
4440,26.5
4443,5.1
4444,32.2
4446,23.2
4447,-2.1
4448,30.8
4454,30.7
4455,13.4
4457,29.9
4459,-9.8
4461,24.6
4464,28.9
4470,41.6
4472,12.1
4473,32.9
4476,13.7
4481,12.1
4482,8.2
4484,34.3
4490,23.5
4492,36.5
4493,8.4
4495,30.8
4499,4.9
4500,22.6
4501,28.4
4503,18.5
4505,37.0
4506,11.6
4509,8.2
4510,35.9
4511,12.9
4514,15.9
4522,12.9
4524,9.3
4527,3.0
4529,23.1
4536,18.7
4537,3.0
4538,15.0
4539,23.7
4540,14.3
4541,32.9
4542,23.8
4543,8.4
4547,-2.1
4548,5.9
4549,8.7
4550,35.9
4551,17.2
4553,6.5
4554,19.2
4555,23.4
4556,13.2
4558,-9.8
4561,6.2
4562,4.5
4566,10.0
4568,29.6
4569,12.9
4570,41.6
4571,7.1
4573,10.7
4574,18.8
4576,24.5
4577,30.3
4578,23.3
4579,10.0
4581,8.2
4583,18.7
4585,27.2
4587,7.3
4588,16.3
4589,27.8
4590,8.2
4591,18.0
4592,36.5
4594,35.4
4595,19.6
4596,9.0
4598,32.2
4600,24.8
4601,17.2
4603,21.0
4605,16.6
4606,33.6
4608,8.7
4609,4.8
4610,24.5
4613,8.0
4615,15.9
4616,30.7
4617,11.5
4619,4.1
4620,23.6
4622,25.8
4623,33.0
4626,0.5
4627,33.8
4628,14.4
4629,8.5
4631,6.0
4636,0.5
4637,9.5
4638,7.5
4642,15.7
4644,11.6
4646,0.5
4652,15.0
4656,4.3
4658,-4.7
4660,7.1
4663,10.9
4664,29.5
4666,7.3
4668,25.1
4669,39.1
4670,13.9
4672,26.0
4673,5.6
4674,32.1
4675,20.0
4676,23.5
4678,25.0
4679,12.6
4680,-9.8
4681,24.0
4684,8.2
4686,26.8
4688,12.3
4689,8.3
4691,33.9
4692,36.0
4693,20.6
4694,11.8
4695,31.0
4697,24.7
4698,26.3
4699,27.1
4701,21.8
4703,21.0
4706,7.6
4707,10.0
4709,34.6
4710,4.2
4714,13.3
4718,29.5
4719,19.9
4720,5.4
4721,20.3
4722,16.6
4723,23.0
4724,35.7
4726,0.5
4727,33.1
4730,29.0
4731,23.4
4733,36.5
4734,18.2
4735,7.1
4737,0.5
4738,32.8
4741,35.1
4742,9.5
4746,19.4
4747,8.2
4751,21.9
4753,13.6
4754,18.3
4757,-4.7
4758,5.9
4759,21.2
4761,25.0
4763,29.9
4764,15.9
4766,21.4
4768,41.6
4769,10.3
4771,28.4
4772,9.7
4774,29.6
4776,27.1
4777,27.4
4779,19.8
4780,-7.2
4783,17.3
4784,9.7
4785,28.4
4786,12.8
4787,19.9
4792,33.9
4793,25.7
4794,29.7
4796,16.0
4799,34.5
4803,18.5
4806,32.5
4809,25.0
4812,14.5
4814,13.3
4818,16.3
4821,29.9
4822,16.9
4823,22.3
4824,9.7
4825,32.7
4826,-2.1
4827,4.3
4828,7.5
4829,10.1
4834,28.1
4835,25.9
4836,25.0
4837,-7.2
4839,9.5
4841,33.1
4842,13.9
4843,9.7
4845,17.6
4846,23.4
4848,41.6
4850,12.3
4851,9.9
4852,4.4
4853,32.1
4854,9.6
4855,9.4
4857,34.4
4858,6.9
4860,3.0
4861,22.8
4862,9.8
4864,4.4
4865,4.4
4866,27.2
4867,17.8
4868,9.6
4870,26.9
4871,39.1
4878,5.3
4879,17.5
4880,4.0
4881,34.3
4882,21.0
4883,33.4
4887,31.3
4889,5.7
4890,23.2
4892,18.2
4893,15.9
4896,10.1
4898,19.7
4900,13.4
4901,5.3
4903,27.7
4904,3.0
4906,24.3
4909,5.6
4910,29.1
4911,23.0
4913,12.1
4915,3.0
4917,29.2
4924,21.8
4925,9.9
4926,0.5
4927,9.3
4929,31.6
4930,7.1
4934,35.3
4936,0.5
4938,11.3
4939,32.1
4942,26.9
4943,17.9
4944,4.7
4946,15.9
4947,21.5
4951,19.2
4953,25.7
4956,14.6
4957,13.3
4958,-15.0
4960,7.7
4962,26.6
4965,17.8
4967,31.7
4968,19.6
4970,36.5
4971,18.4
4974,8.3
4976,13.3
4977,27.4
4980,27.5
4981,21.0
4983,15.7
4987,4.5
4989,14.7
4992,19.3
4994,15.9
4995,10.6
4997,18.0
5000,18.7
5002,18.0
5003,8.8
5004,11.4
5005,3.0
5013,7.7
5014,36.4
5015,3.0
5016,33.2
5018,30.0
5021,7.8
5025,-2.1
5026,25.2
5027,30.2
5028,12.5
5029,27.5
5037,-9.8
5043,35.8
5044,13.9
5046,35.0
5048,44.2
5049,27.6
5053,16.8
5055,13.1
5056,31.0
5060,8.2
5065,7.8
5067,28.7
5070,36.5
5077,19.2
5082,18.5
5084,19.3
5085,25.7
5086,16.8
5087,15.9
5088,35.4
5089,33.5
5090,28.8
5093,13.3
5095,17.9
5096,26.9
5098,30.1
5101,23.9
5104,3.0
5108,9.9
5109,36.2
5110,31.0
5112,33.0
5114,3.0
5117,30.7
5119,19.6
5120,32.3
5121,7.3
5123,22.2
5124,4.7
5126,-2.1
5129,6.9
5130,31.9
5132,24.5
5133,22.6
5137,-9.8
5139,9.7
5142,27.0
5145,5.4
5146,9.6
5148,41.6
5151,22.5
5154,18.7
5157,12.8
5158,12.8
5159,10.8
5161,29.4
5171,28.8
5176,9.6
5177,12.9
5178,18.1
5182,15.9
5183,15.1
5189,10.5
5194,8.2
5197,31.2
5199,22.9
5203,18.8
5204,0.5
5205,29.1
5207,4.4
5210,15.8
5213,13.7
5215,3.0
5216,21.7
5217,28.6
5225,3.0
5228,16.5
5229,29.1
5231,17.8
5235,-4.7
5237,22.7
5240,13.3
5241,19.4
5243,10.5
5244,18.3
5245,27.3
5246,41.6
5248,6.1
5249,4.4
5251,35.6
5255,23.7
5257,11.5
5259,-7.2
5260,32.9
5261,24.7
5262,14.3
5264,28.5
5265,12.8
5267,7.0
5270,33.9
5271,28.0
5272,11.7
5273,29.7
5275,23.9
5276,31.6
5277,5.1
5279,29.8
5281,18.5
5284,19.7
5285,6.6
5287,26.2
5289,5.6
5291,20.1
5292,25.4
5293,13.3
5303,17.5
5304,0.5
5305,7.1
5306,11.3
5309,20.7
5310,33.9
5311,12.6
5314,0.5
5315,11.0
5324,5.7
5325,8.2
5326,28.0
5327,6.7
5328,28.8
5329,31.8
5331,35.8
5333,15.6
5335,17.7
5336,-4.7
5338,33.6
5340,32.0
5343,8.3
5344,32.9
5345,28.9
5347,39.1
5350,17.3
5351,34.5
5352,33.7
5357,29.8
5358,-4.7
5359,16.1
5360,13.8
5363,26.9
5369,33.9
5370,21.1
5371,30.9
5372,28.6
5374,22.9
5375,35.0
5376,8.9
5377,19.7
5378,27.0
5379,23.0
5381,18.5
5383,7.6
5384,29.6
5390,14.2
5391,5.4
5393,13.3
5395,19.0
5398,31.8
5401,22.5
5404,0.5
5405,4.7
5406,36.2
5408,16.0
5409,28.8
5413,18.1
5414,-2.1
5417,15.1
5418,5.2
5420,27.3
5421,18.7
5422,34.2
5425,23.5
5426,33.9
5427,12.1
5428,4.9
5430,19.9
5435,18.5
5437,-22.7
5439,11.0
5441,31.0
5443,19.5
5445,30.1
5446,33.9
5447,22.1
5449,8.5
5450,31.3
5455,28.3
5457,17.9
5462,18.5
5464,33.3
5469,19.7
5470,23.0
5473,10.8
5474,13.3
5476,6.7
5481,4.5
5483,20.9
5484,-4.7
5485,20.8
5489,20.7
5490,14.9
5491,20.6
5495,-9.8
5497,14.9
5499,23.7
5505,31.3
5507,41.6
5508,16.8
5509,28.8
5510,22.9
5512,10.7
5515,26.4
5516,9.6
5517,21.0
5519,10.8
5521,24.4
5523,32.0
5524,28.9
5525,36.6
5526,4.8
5527,31.8
5530,28.8
5533,30.4
5536,25.0
5537,32.0
5539,31.8
5540,25.0
5541,15.9
5542,22.8
5543,8.6
5547,7.9
5548,19.0
5549,12.7
5551,32.3
5552,17.9
5553,8.2
5556,27.1
5557,6.6
5559,32.5
5560,26.5
5563,0.5
5564,18.6
5565,17.4
5566,10.8
5567,31.7
5568,29.2
5571,17.3
5573,3.0
5574,9.4
5576,34.7
5580,26.3
5582,33.0
5583,19.7
5584,-2.1
5587,35.1
5589,23.1
5593,9.9
5595,31.6
5596,-12.4
5598,31.7
5599,6.6
5600,36.8
5603,30.9
5608,39.1
5610,34.7
5614,20.2
5615,22.5
5617,17.8
5619,21.0
5620,14.7
5622,33.2
5623,10.7
5625,30.5
5628,19.3
5630,18.5
5632,19.1
5633,34.2
5634,4.2
5638,18.0
5639,31.4
5640,24.2
5641,9.7
5642,5.6
5644,23.4
5645,9.2
5647,10.8
5648,27.0
5649,21.7
5650,35.5
5653,5.6
5659,11.7
5662,33.2
5663,0.5
5664,26.3
5665,11.8
5666,14.8
5668,26.7
5670,25.1
5672,26.8
5673,0.5
5676,7.7
5677,15.8
5680,22.7
5681,36.3
5684,5.6
5685,18.8
5688,36.8
5689,23.8
5690,6.1
5691,15.2
5693,21.8
5694,-4.7
5695,10.3
5696,16.1
5700,36.9
5701,21.5
5702,35.6
5703,13.0
5704,22.5
5705,41.6
5707,20.9
5708,29.6
5710,25.7
5713,12.1
5715,5.8
5716,8.8
5718,-7.2
5719,32.8
5720,26.4
5721,28.4
5722,19.4
5724,21.8
5725,17.7
5729,33.9
5733,20.6
5734,34.6
5735,16.8
5737,16.4
5738,25.1
5739,25.9
5740,21.0
5745,26.4
5746,15.3
5749,25.3
5751,13.3
5753,23.1
5754,28.9
5755,33.8
5756,5.7
5758,16.5
5760,32.1
5762,33.1
5763,0.5
5764,23.2
5773,-2.1
5774,27.8
5775,8.7
5776,32.0
5778,20.9
5780,14.8
5781,10.6
5782,18.8
5784,5.5
5785,33.9
5786,19.7
5789,34.9
5790,36.3
5793,17.6
5794,13.8
5795,18.7
5796,-20.1
5800,5.6
5802,5.0
5804,24.8
5808,5.0
5809,31.3
5810,25.1
5814,32.6
5816,32.3
5818,19.0
5819,17.3
5820,18.5
5822,21.4
5824,23.8
5827,17.7
5828,9.7
5829,32.7
5831,10.8
5832,13.8
5834,13.9
5836,21.4
5839,28.8
5842,-2.1
5844,5.0
5846,32.1
5848,19.1
5852,21.0
5853,25.8
5855,-7.2
5857,35.9
5858,35.4
5860,10.1
5862,25.3
5864,24.8
5865,6.9
5866,41.6
5868,17.8
5869,4.1
5871,34.9
5875,26.6
5877,8.2
5879,27.7
5880,33.2
5885,16.7
5886,7.6
5888,36.5
5889,30.4
5890,17.4
5891,8.4
5893,22.4
5898,21.5
5899,18.5
5900,31.7
5903,11.9
5904,8.0
5905,5.9
5906,29.0
5907,9.8
5910,15.9
5912,34.5
5914,10.4
5916,33.7
5917,12.7
5919,12.9
5920,14.8
5921,23.6
5922,3.0
5924,24.8
5928,10.1
5932,12.4
5933,0.5
5935,36.9
5936,26.5
5938,32.9
5939,33.7
5943,-2.1
5944,6.7
5946,4.4
5949,28.6
5951,30.7
5954,-9.8
5956,34.7
5958,8.7
5960,9.4
5965,41.6
5966,32.9
5967,11.1
5968,23.7
5969,23.3
5970,35.0
5971,9.2
5977,10.8
5979,11.4
5980,16.0
5984,4.3
5989,28.8
5991,22.2
5992,12.8
5998,18.9
5999,31.2
6000,15.9
6001,34.6
6004,5.9
6009,24.1
6010,25.4
6011,8.2
6012,18.8
6013,8.4
6014,28.9
6015,12.0
6017,14.5
6020,31.9
6022,3.0
6025,33.4
6028,14.2
6029,15.6
6032,0.5
6034,11.3
6036,29.2
6037,12.4
6039,28.9
6042,-2.1
6043,27.1
6046,30.9
6047,30.1
6050,29.7
6052,13.2
6054,-12.4
6056,4.5
6057,12.0
6059,17.2
6060,27.2
6061,31.7
6062,33.7
6063,22.0
6065,7.9
6066,32.9
6067,39.1
6068,22.8
6069,36.9
6070,12.2
6074,16.2
6078,21.0
6083,35.0
6085,17.2
6087,9.0
6088,10.5
6089,21.0
6091,8.2
6094,18.1
6096,16.6
6097,30.6
6098,23.9
6100,8.2
6101,24.6
6107,21.5
6108,13.4
6109,6.4
6111,5.6
6112,16.3
6113,14.2
6115,30.9
6117,35.9
6118,32.2
6119,26.0
6121,9.7
6122,0.5
6123,28.7
6125,35.4
6126,10.1
6127,21.3
6130,10.1
6131,35.7
6132,0.5
6133,22.6
6134,8.3
6135,16.7
6136,17.1
6137,35.9
6138,35.3
6140,22.8
6142,5.6
6143,17.5
6146,10.2
6148,15.4
6150,24.1
6153,-4.7
6154,23.5
6155,33.4
6159,23.8
6160,31.1
6163,23.4
6164,39.1
6165,28.3
6170,30.1
6173,28.2
6175,-7.2
6176,12.2
6180,14.6
6181,22.2
6184,19.8
6185,36.1
6187,22.3
6188,36.5
6190,19.3
6191,20.3
6195,24.2
6196,16.3
6198,29.8
6199,18.5
6200,4.4
6209,8.0
6210,13.3
6211,12.4
6215,9.7
6216,21.3
6217,32.6
6221,-2.1
6222,12.3
6223,24.1
6225,12.2
6232,14.8
6233,-7.2
6236,23.9
6237,28.6
6239,36.2
6241,23.8
6243,9.1
6244,41.6
6246,8.2
6247,4.3
6248,4.1
6253,6.2
6256,0.5
6257,13.8
6259,25.5
6262,25.7
6265,19.4
6266,36.5
6267,17.2
6269,31.7
6270,27.9
6271,35.1
6276,35.6
6278,18.5
6280,14.1
6283,25.5
6286,11.5
6287,5.1
6289,18.5
6291,13.4
6292,34.9
6293,6.3
6297,13.9
6298,4.6
6299,21.0
6300,5.6
6303,23.0
6308,14.6
6310,5.6
6318,33.7
6322,-2.1
6324,31.8
6326,19.5
6327,5.1
6329,24.2
6330,18.3
6331,14.8
6332,26.2
6333,-9.8
6334,13.8
6335,28.5
6338,26.0
6340,27.0
6344,41.6
6353,13.8
6354,4.4
6355,5.6
6356,24.5
6358,27.4
6359,9.0
6360,21.1
6361,11.7
6362,31.4
6363,5.0
6364,34.8
6366,36.5
6368,36.8
6370,18.1
6377,18.5
6381,35.1
6383,7.4
6384,35.1
6385,22.4
6389,15.9
6391,24.5
6392,8.1
6394,34.9
6401,5.6
6403,35.0
6404,31.3
6405,22.0
6411,3.0
6412,36.1
6413,30.9
6416,25.4
6421,-2.1
6423,32.3
6424,17.3
6425,8.3
6427,4.1
6429,19.6
6431,16.0
6432,-9.8
6433,24.7
6435,4.1
6438,24.3
6439,17.5
6441,34.9
6442,18.2
6444,41.6
6445,15.0
6446,19.8
6447,29.0
6448,25.5
6449,28.2
6452,35.8
6456,8.2
6457,13.6
6458,31.9
6459,14.2
6460,30.2
6462,14.1
6464,12.5
6465,27.5
6466,36.5
6468,14.5
6469,35.8
6470,25.7
6471,19.9
6472,24.4
6476,32.1
6477,18.5
6478,7.2
6486,5.7
6489,15.9
6493,20.2
6495,10.5
6500,3.0
6501,9.6
6502,20.4
6503,36.0
6504,6.0
6506,17.8
6507,29.0
6509,29.1
6510,3.0
6511,9.9
6512,5.5
6513,26.9
6514,31.5
6515,28.6
6516,23.3
6518,27.8
6519,23.5
6521,-4.7
6525,21.0
6526,10.4
6527,19.2
6528,10.3
6529,28.1
6530,30.7
6533,-9.8
6536,32.1
6537,14.2
6538,31.9
6539,13.5
6544,41.6
6545,24.1
6550,29.7
6551,20.3
6553,4.8
6554,28.7
6555,8.2
6557,21.6
6558,32.6
6559,29.6
6561,14.4
6562,6.2
6564,36.0
6565,36.5
6566,4.2
6567,31.6
6568,17.6
6571,6.5
6575,29.0
6576,6.4
6577,18.5
6579,19.6
6582,5.1
6583,34.3
6584,22.4
6585,29.8
6586,15.8
6589,15.9
6593,19.9
6595,11.9
6597,25.7
6598,32.5
6599,23.6
6600,3.0
6601,6.6
6603,15.6
6605,10.4
6606,12.4
6609,24.0
6610,3.0
6612,6.4
6617,30.2
6619,20.8
6620,15.4
6621,0.5
6624,22.0
6626,6.6
6627,28.3
6628,7.1
6631,-2.1
6632,33.5
6633,18.9
6634,13.0
6635,30.4
6637,16.9
6638,16.1
6639,23.9
6640,7.9
6642,41.6
6644,17.1
6645,25.3
6646,31.1
6650,4.1
6651,13.4
6654,-12.4
6658,23.4
6659,33.4
6660,30.4
6661,27.7
6662,14.5
6663,14.3
6667,28.8
6669,21.8
6671,36.5
6672,36.8
6673,12.2
6674,34.5
6675,27.5
6676,8.9
6678,15.9
6681,6.7
6684,21.8
6689,8.2
6691,26.5
6695,23.4
6697,17.0
6700,3.0
6701,9.3
6703,35.0
6707,28.1
6708,11.9
6709,16.3
6710,0.5
6711,31.1
6714,22.3
6715,26.6
6716,13.2
6717,36.1
6718,28.5
6720,25.8
6721,3.0
6723,21.6
6724,4.4
6727,16.9
6728,9.2
6729,27.0
6730,7.0
6731,-4.7
6732,33.7
6733,13.3
6734,18.4
6737,23.8
6738,32.6
6739,27.8
6741,15.3
6743,39.1
6744,17.8
6746,10.6
6748,34.8
6749,24.0
6750,19.5
6752,12.7
6754,-7.2
6755,4.7
6759,34.0
6763,33.7
6764,29.1
6765,33.9
6772,31.7
6774,20.1
6776,18.5
6779,20.7
6782,35.8
6785,22.4
6787,36.7
6789,13.3
6793,5.4
6796,9.6
6798,36.3
6800,0.5
6803,27.6
6805,23.8
6806,24.3
6807,21.8
6808,27.9
6810,0.5
6814,26.9
6820,10.8
6821,33.2
6822,13.3
6823,11.3
6825,7.0
6826,26.5
6827,34.0
6832,-12.4
6837,30.8
6838,16.5
6839,7.2
6842,21.7
6844,39.1
6846,22.3
6849,22.5
6851,15.3
6853,30.4
6856,18.5
6857,12.0
6861,25.7
6863,7.7
6865,25.7
6867,18.5
6869,5.1
6870,36.8
6873,30.4
6874,26.2
6875,9.2
6877,4.6
6879,5.6
6880,11.5
6883,33.9
6885,26.4
6889,5.6
6893,19.7
6895,35.4
6896,16.0
6897,13.2
6898,19.8
6899,0.5
6900,27.0
6903,30.1
6905,32.5
6906,26.4
6909,0.5
6916,26.4
6917,8.5
6919,25.1
6921,13.3
6922,10.5
6923,18.6
6926,6.1
6927,16.9
6928,6.4
6932,-15.0
6933,24.4
6936,15.2
6937,12.0
6938,13.0
6942,32.9
6943,20.0
6944,36.5
6948,16.8
6951,17.5
6952,32.8
6953,9.9
6954,14.8
6956,21.0
6958,29.0
6965,16.4
6967,15.9
6968,4.1
6970,11.7
6971,4.4
6972,28.7
6974,6.4
6976,21.6
6978,3.0
6979,4.5
6980,16.3
6981,30.8
6982,33.9
6987,4.2
6989,3.0
6990,33.9
6991,21.1
6992,5.6
6993,34.6
6994,5.7
6995,11.8
6996,17.1
6998,11.9
6999,31.4
7000,-2.1
7001,16.2
7006,8.3
7009,21.5
7010,25.2
7011,-9.8
7012,25.4
7013,18.2
7014,31.6
7015,24.6
7018,23.4
7020,4.4
7022,41.6
7023,11.1
7024,5.4
7026,7.9
7027,9.4
7028,30.6
7030,11.8
7032,5.0
7033,8.2
7034,16.0
7036,4.8
7037,12.7
7038,9.2
7044,36.5
7045,10.6
7046,35.1
7048,29.0
7049,22.8
7050,27.0
7051,16.1
7052,32.3
7053,23.0
7055,31.2
7056,21.0
7060,36.0
7066,5.4
7067,18.5
7070,24.6
7072,21.6
7073,5.4
7077,32.5
7078,3.0
7083,19.3
7085,34.3
7087,35.3
7088,34.8
7089,3.0
7092,25.8
7093,12.5
7096,13.0
7098,24.8
7099,-2.1
7103,35.4
7105,5.4
7110,-9.8
7111,13.4
7113,22.4
7115,24.0
7116,26.9
7117,34.5
7119,11.4
7120,7.0
7122,44.2
7123,22.4
7127,24.8
7129,8.0
7131,22.1
7133,16.8
7134,8.2
7143,24.8
7144,36.5
7146,21.5
7147,13.4
7149,31.7
7150,13.3
7151,14.9
7152,36.4
7155,21.0
7158,9.2
7161,9.5
7162,30.2
7166,15.9
7167,16.2
7169,8.1
7171,24.3
7176,5.7
7178,3.0
7179,27.1
7180,16.5
7186,11.7
7187,30.8
7188,7.4
7189,3.0
7194,17.9
7196,8.6
7197,21.9
7199,-2.1
7204,5.0
7208,4.3
7210,18.8
7211,-12.4
7212,25.1
7214,29.0
7215,33.8
7216,17.4
7217,8.3
7218,15.7
7220,36.8
7221,16.1
7223,39.1
7224,16.1
7226,6.3
7227,35.5
7228,26.5
7229,6.2
7230,11.6
7231,28.0
7232,35.4
7233,18.0
7234,18.5
7237,30.7
7243,14.4
7244,5.8
7245,21.0
7246,21.4
7249,22.9
7250,16.3
7251,9.9
7253,14.0
7254,10.9
7255,23.5
7256,14.2
7258,5.6
7259,22.7
7264,5.9
7265,16.4
7268,8.2
7271,12.7
7272,28.6
7275,11.1
7278,3.0
7282,26.4
7283,14.6
7287,35.0
7288,3.0
7289,34.3
7290,23.3
7292,14.5
7298,19.2
7299,5.6
7300,22.9
7301,28.3
7302,29.0
7303,34.8
7305,25.0
7308,21.5
7309,-4.7
7310,18.3
7311,28.5
7312,13.9
7314,27.7
7318,23.2
7320,18.2
7321,39.1
7325,16.8
7326,8.1
7328,11.8
7332,-9.8
7334,33.1
7335,27.5
7337,20.3
7341,24.7
7342,22.5
7343,17.1
7344,33.9
7348,35.5
7349,16.4
7352,19.5
7354,29.5
7355,18.5
7358,36.0
7362,36.8
7365,26.9
7366,13.3
7374,32.0
7376,30.4
7377,0.5
7378,6.9
7380,12.8
7381,32.2
7384,30.6
7385,7.3
7386,10.1
7388,4.8
7389,0.5
7391,15.9
7392,20.1
7395,11.2
7396,32.1
7397,8.7
7398,27.3
7399,8.2
7402,27.1
7404,11.0
7405,26.5
7407,10.9
7409,-7.2
7410,36.9
7411,17.4
7413,12.5
7415,10.1
7418,22.5
7419,8.4
7420,41.6
7421,11.9
7426,9.4
7427,17.0
7428,30.5
7429,35.8
7431,16.4
7432,-4.7
7434,32.4
7437,25.5
7438,12.5
7440,18.5
7443,33.9
7447,34.3
7448,24.5
7449,27.4
7454,11.4
7455,18.5
7463,21.7
7467,13.3
7470,15.2
7473,8.6
7474,8.5
7475,26.6
7476,4.7
7478,0.5
7479,7.1
7481,26.7
7482,4.0
7484,18.0
7488,0.5
7491,10.2
7492,29.1
7494,9.8
7496,13.2
7497,8.6
7498,13.3
7499,35.7
7500,20.3
7501,6.3
7502,23.5
7503,8.9
7505,24.1
7509,30.4
7510,-15.0
7512,19.9
7513,31.1
7516,32.4
7523,36.5
7528,14.8
7532,12.9
7533,15.3
7534,21.0
7536,33.6
7541,5.9
7543,34.6
7544,14.7
7545,18.5
7546,22.8
7548,24.1
7549,6.3
7552,22.2
7557,3.0
7558,11.3
7563,5.0
7566,27.6
7567,3.0
7570,17.0
7571,13.4
7577,-2.1
7578,12.1
7581,26.2
7587,10.1
7589,-7.2
7590,29.0
7591,36.8
7593,27.9
7594,9.0
7598,8.2
7599,18.8
7601,44.2
7607,19.4
7608,10.7
7611,6.5
7612,5.6
7614,33.3
7616,20.7
7622,36.5
7623,35.7
7624,35.5
7625,17.3
7627,13.9
7628,19.8
7629,34.5
7632,18.6
7633,18.5
7637,10.8
7639,15.9
7641,11.9
7644,30.3
7645,18.5
7646,15.1
7650,14.3
7654,24.6
7657,3.0
7658,30.3
7659,8.5
7662,13.5
7664,28.0
7665,5.2
7666,19.6
7667,3.0
7668,27.4
7669,28.0
7672,8.4
7673,20.4
7674,4.6
7675,25.4
7677,-2.1
7679,18.3
7680,29.8
7681,16.1
7683,9.5
7685,19.0
7688,8.5
7689,-9.8
7691,22.8
7692,4.1
7693,34.6
7696,31.4
7698,4.5
7700,41.6
7702,5.3
7703,27.3
7705,10.3
7708,20.8
7709,36.4
7711,10.8
7713,24.9
7714,30.2
7718,35.1
7719,33.1
7720,30.3
7721,35.2
7722,28.1
7723,13.3
7724,28.8
7725,18.8
7727,14.4
7730,20.0
7731,23.3
7732,7.4
7733,34.5
7735,15.9
7737,36.4
7740,27.1
7743,22.8
7744,20.0
7745,23.0
7746,8.2
7749,21.9
7750,13.2
7754,36.9
7756,3.0
7757,30.1
7759,12.5
7760,34.2
7761,20.7
7766,5.1
7767,3.0
7769,28.4
7770,33.3
7771,30.9
7775,4.5
7776,13.3
7777,-4.7
7778,27.2
7779,25.8
7780,8.7
7782,17.8
7783,32.8
7784,13.8
7785,8.2
7788,28.6
7789,-9.8
7791,36.2
7792,12.5
7794,16.6
7796,8.3
7799,9.2
7800,44.2
7801,22.1
7802,27.2
7806,33.1
7809,30.6
7812,10.8
7814,6.5
7815,32.6
7818,7.4
7819,24.3
7821,22.6
7822,15.2
7823,28.8
7825,12.3
7827,4.1
7828,6.4
7829,26.6
7831,18.4
7834,13.3
7835,27.1
7839,34.3
7840,9.4
7843,34.0
7844,30.9
7846,8.2
7847,36.1
7849,27.2
7851,14.0
7853,20.4
7854,9.7
7857,3.0
7858,33.4
7859,25.0
7862,15.3
7863,27.6
7864,28.6
7867,0.5
7869,27.0
7871,6.1
7873,20.9
7874,20.5
7877,3.0
7878,8.7
7879,35.9
7880,10.8
7881,21.4
7882,22.0
7884,19.9
7885,14.9
7887,-4.7
7888,22.0
7889,32.0
7890,6.2
7892,21.2
7893,16.7
7894,6.5
7895,28.1
7899,41.6
7900,27.0
7902,12.4
7909,25.2
7910,-9.8
7912,17.2
7914,19.4
7916,36.3
7918,23.8
7922,33.9
7925,36.1
7928,36.0
7930,16.9
7932,28.9
7933,18.5
7936,14.7
7937,18.1
7938,18.6
7940,12.9
7941,29.6
7945,13.3
7947,16.8
7949,33.2
7951,21.9
7952,36.0
7954,32.3
7956,0.5
7959,32.3
7960,18.7
7961,10.6
7963,30.5
7966,0.5
7968,5.7
7969,21.9
7971,22.9
7976,8.2
7978,8.6
7983,6.8
7984,17.2
7985,4.2
7987,17.8
7988,-4.7
7989,15.8
7991,14.5
7993,18.8
7995,20.7
7997,35.4
7998,14.9
7999,39.1
8000,26.0
8001,21.3
8002,17.2
8003,14.8
8004,29.0
8005,33.3
8007,15.6
8009,36.7
8010,-7.2
8012,9.7
8015,19.5
8017,13.1
8019,4.2
8020,16.8
8022,33.9
8023,18.7
8028,21.2
8029,30.7
8033,18.5
8034,30.7
8036,32.2
8037,13.6
8038,5.9
8039,6.4
8040,16.6
8043,12.4
8044,13.3
8047,7.5
8048,9.8
8049,12.5
8056,0.5
8058,14.0
8059,6.3
8061,20.9
8065,24.2
8067,0.5
8072,34.8
8073,4.2
8075,30.5
8076,31.5
8077,10.8
8079,10.7
8081,17.4
8082,21.6
8083,18.1
8088,-12.4
8091,20.9
8096,11.7
8097,14.5
8098,19.5
8100,39.1
8101,5.4
8104,6.1
8105,4.7
8107,12.1
8108,10.4
8110,33.1
8113,21.0
8114,13.8
8117,34.9
8118,9.1
8119,11.0
8123,25.2
8124,15.9
8126,6.0
8128,5.5
8130,26.9
8131,28.1
8132,21.8
8133,28.3
8134,11.4
8135,3.0
8136,36.4
8137,29.6
8141,13.2
8142,6.3
8145,3.0
8146,12.9
8148,23.1
8149,23.3
8150,18.3
8151,6.2
8153,24.0
8156,0.5
8158,23.7
8165,32.6
8166,0.5
8167,34.3
8168,33.5
8169,33.0
8170,8.5
8176,15.9
8177,13.0
8178,36.7
8179,22.3
8180,7.6
8181,16.0
8182,24.1
8184,21.4
8185,13.9
8186,34.2
8188,-15.0
8191,19.3
8192,15.7
8194,29.4
8197,28.8
8200,20.2
8201,36.5
8202,36.6
8204,36.1
8212,21.0
8213,4.5
8214,14.6
8217,25.1
8220,35.5
8221,22.9
8222,26.3
8223,18.5
8224,33.3
8226,23.3
8227,24.7
8231,22.1
8235,5.6
8237,8.6
8238,36.4
8239,4.0
8240,27.7
8242,12.3
8246,3.0
8249,8.9
8253,32.8
8255,32.3
8256,-2.1
8258,30.4
8259,36.0
8260,15.7
8261,21.5
8264,36.2
8265,8.6
8267,-9.8
8270,21.2
8272,24.1
8274,32.7
8276,19.5
8277,31.9
8279,41.6
8281,9.1
8282,11.5
8287,22.6
8289,18.5
8290,8.2
8296,19.2
8298,13.4
8300,36.5
8303,18.4
8304,16.0
8308,16.1
8309,35.3
8310,25.7
8311,6.2
8312,21.0
8315,33.7
8317,28.3
8319,36.8
8321,26.7
8322,27.8
8324,15.9
8327,10.6
8328,20.5
8331,28.9
8333,8.3
8335,3.0
8336,24.0
8338,30.0
8339,21.2
8343,17.1
8345,3.0
8346,21.0
8347,34.9
8349,7.5
8350,17.9
8354,12.1
8355,-2.1
8357,29.3
8358,9.6
8359,33.4
8360,5.0
8362,25.2
8364,27.8
8366,16.4
8367,-9.8
8369,24.5
8371,13.2
8374,19.2
8376,31.7
8377,13.7
8378,21.0
8379,41.6
8382,7.3
8383,36.4
8386,10.4
8388,4.1
8390,10.8
8391,17.3
8393,31.8
8397,11.1
8398,35.9
8400,34.2
8401,31.3
8403,6.9
8404,7.0
8405,30.8
8406,34.5
8410,30.3
8411,7.0
8413,15.9
8415,21.8
8418,8.9
8422,29.7
8424,8.2
8426,33.2
8430,31.2
8432,31.1
8433,22.6
8434,0.5
8436,17.7
8437,22.1
8438,31.6
8439,34.8
8442,34.6
8445,0.5
8456,0.5
8457,11.8
8459,19.2
8462,8.8
8463,25.6
8464,7.9
8465,24.6
8466,-4.7
8467,35.2
8469,4.9
8470,9.0
8471,9.7
8472,19.6
8475,31.3
8477,39.1
8478,5.9
8479,27.4
8482,30.3
8483,36.3
8488,-12.4
8489,14.4
8490,13.0
8493,30.4
8494,21.9
8495,25.0
8496,5.8
8497,33.3
8499,13.3
8500,19.4
8501,26.2
8502,18.7
8503,14.7
8504,12.6
8505,24.7
8507,18.7
8508,20.4
8510,14.4
8512,23.6
8513,15.9
8517,6.6
8518,31.0
8519,32.5
8524,5.6
8525,21.8
8526,26.6
8527,31.8
8528,28.7
8529,19.3
8530,6.2
8535,0.5
8536,23.2
8537,14.6
8539,23.9
8540,22.4
8541,14.0
8543,20.8
8545,3.0
8546,24.1
8549,27.5
8550,16.9
8553,17.4
8555,5.6
8556,22.1
8557,20.7
8558,22.2
8559,18.6
8560,10.8
8561,4.8
8564,9.1
8565,-4.7
8569,4.6
8570,19.8
8571,6.6
8572,11.8
8577,41.6
8580,17.2
8582,7.6
8585,7.8
8587,24.8
8589,-7.2
8592,26.0
8593,4.9
8595,32.0
8597,28.4
8599,22.1
8600,33.9
8602,30.6
8604,7.3
8610,34.6
8611,18.5
8612,25.4
8615,21.8
8616,25.2
8617,32.0
8621,29.9
8623,13.3
8626,7.2
8628,29.3
8631,30.9
8632,4.9
8634,0.5
8635,31.3
8636,4.2
8637,17.3
8640,27.6
8643,32.0
8644,23.7
8645,0.5
8649,32.8
8650,5.6
8651,23.3
8653,11.2
8654,29.7
8655,10.8
8656,23.5
8657,8.8
8658,22.3
8661,33.5
8663,11.4
8666,33.9
8667,-12.4
8668,20.9
8671,34.7
8675,18.4
8677,14.0
8679,39.1
8681,33.8
8683,34.4
8684,12.0
8689,14.4
8690,18.5
8691,17.9
8693,14.8
8696,20.9
8700,17.7
8701,18.5
8704,21.1
8705,28.1
8707,11.4
8710,36.2
8711,15.2
8714,5.6
8715,26.8
8716,4.4
8720,20.1
8724,5.6
8725,11.8
8727,7.4
8728,9.6
8730,30.6
8732,33.7
8733,11.2
8734,-2.1
8735,14.7
8738,15.2
8739,5.4
8744,31.9
8745,-9.8
8746,14.5
8747,26.3
8749,5.1
8755,8.2
8757,41.6
8759,7.1
8760,19.8
8761,23.9
8762,32.9
8764,11.3
8768,3.0
8769,13.0
8772,31.1
8779,36.5
8780,12.7
8781,14.3
8786,36.4
8788,21.7
8790,7.5
8791,18.5
8793,6.5
8798,6.1
8799,33.3
8800,35.4
8802,18.5
8803,25.5
8805,27.2
8808,28.8
8811,34.9
8812,36.3
8813,3.0
8815,30.2
8817,32.1
8818,10.5
8821,21.7
8822,18.7
8823,3.0
8824,14.7
8825,28.8
8828,31.0
8829,29.6
8831,23.9
8834,-2.1
8839,28.5
8845,23.2
8846,-9.8
8848,18.5
8851,32.8
8852,24.4
8855,21.7
8856,32.8
8857,44.2
8866,8.7
8867,25.1
8868,8.2
8870,14.0
8871,29.7
8872,12.8
8876,18.1
8878,13.6
8879,36.5
8881,17.6
8882,19.6
8885,30.7
8886,4.8
8887,29.1
8889,11.7
8890,21.0
8891,29.5
8895,27.9
8897,18.1
8901,15.9
8903,13.8
8904,4.7
8905,18.3
8907,34.9
8909,24.2
8912,19.8
8913,3.0
8916,29.0
8918,20.7
8920,10.9
8923,7.9
8924,0.5
8926,23.2
8929,20.4
8930,18.9
8932,34.3
8934,-4.7
8935,23.8
8937,27.2
8939,8.9
8943,18.5
8945,-9.8
8946,7.4
8947,17.0
8950,22.5
8952,28.5
8954,27.5
8955,8.5
8956,41.6
8957,31.4
8958,14.9
8959,16.2
8963,27.3
8964,14.0
8967,9.4
8968,10.8
8969,31.1
8970,11.5
8971,13.9
8976,16.4
8977,36.8
8979,16.3
8980,31.3
8985,22.1
8986,24.7
8988,12.4
8990,12.2
8991,15.9
8992,18.3
8993,16.8
8994,35.2
8995,34.0
8997,13.9
8999,30.2
9000,31.9
9003,8.2
9005,27.4
9008,16.8
9009,28.0
9013,3.0
9019,15.4
9020,24.9
9021,15.8
9023,3.0
9024,13.4
9027,6.7
9030,24.7
9033,-4.7
9035,12.8
9038,34.8
9041,34.7
9042,7.8
9046,-9.8
9056,6.1
9057,41.6
9058,4.1
9059,4.4
9068,10.8
9069,9.3
9070,9.5
9072,20.9
9073,7.1
9077,22.6
9079,31.3
9083,6.4
9084,31.5
9085,13.5
9088,36.9
9089,11.5
9091,13.3
9094,29.2
9097,31.6
9098,26.0
9102,5.6
9103,16.8
9104,33.3
9106,27.3
9107,12.4
9109,22.6
9110,26.9
9111,30.8
9113,0.5
9114,13.5
9116,28.3
9118,8.2
9119,30.7
9120,32.4
9122,21.7
9123,0.5
9124,13.5
9125,25.0
9126,12.0
9131,10.6
9134,0.5
9136,34.8
9137,30.8
9140,18.0
9141,32.1
9142,15.5
9144,-4.7
9145,34.8
9146,5.0
9148,28.0
9149,23.3
9152,27.3
9153,10.2
9154,22.4
9155,39.1
9157,10.2
9159,16.4
9166,-9.8
9170,19.2
9171,23.8
9175,16.5
9176,17.7
9177,18.4
9179,33.9
9181,6.6
9182,8.6
9185,14.3
9186,17.0
9187,11.9
9188,9.7
9189,35.4
9190,21.0
9192,5.1
9193,30.2
9194,31.7
9200,8.4
9201,13.3
9202,27.1
9203,11.3
9207,24.3
9210,22.0
9212,0.5
9218,6.4
9219,36.6
9221,27.9
9222,36.1
9223,0.5
9224,22.3
9225,33.4
9226,20.1
9227,24.4
9228,4.5
9229,19.7
9230,18.9
9233,8.2
9238,6.4
9243,8.9
9244,-4.7
9248,14.0
9249,30.9
9251,8.0
9255,39.1
9258,13.7
9259,24.4
9261,11.0
9262,29.6
9267,-7.2
9268,15.6
9269,19.1
9270,32.1
9272,34.0
9273,18.3
9278,33.9
9282,14.1
9283,32.7
9284,16.4
9285,5.7
9287,22.1
9288,12.1
9289,18.5
9291,28.8
9292,16.5
9293,6.2
9296,23.3
9297,28.8
9298,28.3
9300,13.3
9301,25.2
9302,33.5
9305,24.9
9308,15.7
9312,29.0
9313,0.5
9316,25.1
9317,20.0
9319,18.5
9321,32.1
9322,12.7
9323,0.5
9329,7.1
9333,10.8
9334,24.1
9335,4.9
9336,34.6
9337,36.0
9339,34.3
9340,22.1
9341,4.1
9342,9.9
9343,30.5
9345,-15.0
9349,15.3
9355,28.0
9356,36.3
9357,39.1
9358,31.4
9359,29.8
9361,12.9
9364,13.5
9368,21.0
9369,26.6
9370,32.9
9371,17.2
9373,8.6
9376,21.6
9377,21.7
9379,22.9
9380,18.5
9382,13.9
9383,28.9
9384,35.6
9386,6.2
9391,34.5
9392,5.6
9393,13.1
9394,28.1
9399,27.0
9401,16.3
9402,5.6
9404,19.9
9405,23.1
9407,10.5
9412,-2.1
9413,15.8
9415,7.8
9416,27.0
9417,23.4
9418,21.4
9420,19.4
9423,-7.2
9425,31.2
9426,11.1
9429,8.4
9432,26.7
9434,13.6
9435,41.6
9436,23.2
9437,13.4
9439,18.5
9440,25.5
9441,18.0
9442,21.0
9447,3.0
9451,5.7
9453,21.4
9454,16.3
9457,36.5
9459,5.7
9460,7.3
9461,27.0
9463,19.9
9464,12.0
9466,14.3
9468,18.5
9470,23.2
9471,14.7
9473,35.0
9477,12.3
9479,18.3
9480,18.5
9486,21.7
9488,9.6
9490,7.4
9491,5.6
9495,30.4
9496,20.0
9499,22.1
9500,22.1
9501,3.0
9504,7.2
9505,24.3
9507,17.4
9509,21.3
9511,18.0
9512,0.5
9513,8.3
9514,29.1
9515,31.7
9516,17.4
9518,22.1
9520,31.6
9521,8.7
9523,-2.1
9524,18.1
9533,23.1
9534,39.1
9535,10.5
9536,34.5
9537,27.8
9539,16.3
9542,12.7
9543,27.3
9544,10.5
9545,-22.7
9547,17.3
9548,5.7
9549,10.4
9550,10.1
9554,20.6
9557,32.9
9558,31.3
9559,36.2
9561,26.8
9562,15.1
9566,26.9
9568,26.3
9569,15.9
9570,34.2
9572,8.6
9573,13.5
9574,7.2
9579,13.5
9581,8.2
9583,9.1
9586,17.3
9588,19.9
9589,7.4
9590,6.5
9591,3.0
9592,14.6
9593,23.4
9596,8.7
9600,7.1
9601,32.4
9602,0.5
9604,18.0
9608,12.2
9609,32.0
9612,-2.1
9614,21.1
9617,8.2
9618,32.1
9619,13.2
9620,5.0
9623,-12.4
9624,14.5
9628,32.7
9629,23.4
9630,10.1
9631,9.8
9632,16.3
9634,8.6
9635,41.6
9637,4.9
9638,35.7
9642,28.4
9645,29.0
9648,18.5
9651,32.1
9653,7.8
9657,10.9
9659,21.0
9660,21.6
9661,10.9
9662,23.0
9666,10.4
9670,8.2
9672,25.2
9675,16.0
9679,21.1
9680,8.2
9681,35.5
9684,7.9
9685,11.1
9686,12.0
9687,23.7
9689,15.1
9691,3.0
9694,32.4
9695,26.4
9699,15.0
9700,11.1
9701,3.0
9702,10.1
9703,17.2
9705,29.5
9709,13.8
9711,18.6
9712,-2.1
9717,30.2
9718,9.7
9721,23.3
9723,-12.4
9724,18.2
9725,10.4
9727,9.7
9728,5.8
9731,30.7
9733,35.4
9734,12.2
9736,39.1
9743,28.8
9745,25.0
9747,21.0
9753,19.6
9754,33.9
9755,31.1
9758,18.5
9760,13.1
9762,22.9
9768,25.0
9769,5.6
9772,15.9
9773,24.5
9779,31.4
9780,15.8
9781,8.2
9784,31.5
9785,7.0
9786,26.7
9787,36.9
9788,36.4
9789,17.3
9790,30.9
9791,0.5
9792,22.6
9793,6.2
9794,20.1
9796,33.6
9801,0.5
9802,35.7
9803,16.2
9804,12.1
9809,25.1
9810,6.0
9811,5.6
9816,34.2
9818,17.7
9819,7.5
9820,19.6
9821,36.8
9822,-4.7
9823,11.2
9824,17.3
9825,23.2
9828,16.2
9831,13.5
9833,41.6
9837,18.6
9839,36.8
9840,12.9
9841,29.2
9842,18.3
9844,14.5
9845,-9.8
9846,11.7
9847,10.9
9848,23.2
9854,26.8
9856,34.6
9857,33.9
9865,8.2
9868,18.5
9869,24.9
9871,29.3
9872,22.2
9873,15.2
9874,12.2
9876,13.6
9878,33.0
9879,15.9
9880,27.3
9882,36.7
9884,20.3
9886,23.5
9890,0.5
9891,13.8
9892,15.2
9894,6.7
9896,25.2
9897,32.5
9898,27.0
9899,17.8
9900,10.5
9901,0.5
9902,24.6
9903,34.7
9904,14.7
9906,11.0
9908,25.8
9912,5.6
9913,17.6
9915,14.8
9916,28.7
9917,12.1
9919,23.1
9920,17.6
9921,7.3
9922,-7.2
9923,28.1
9925,8.9
9928,22.7
9930,23.5
9931,11.8
9933,41.6
9934,24.1
9937,33.4
9938,22.0
9939,25.7
9944,17.7
9945,-4.7
9946,15.7
9947,11.4
9950,35.2
9951,6.7
9953,17.0
9956,33.9
9958,29.8
9959,25.6
9960,26.9
9962,6.9
9964,12.1
9966,20.4
9967,18.5
9970,10.9
9971,8.3
9972,5.9
9974,26.8
9977,29.6
9979,10.8
9981,29.5
9982,35.1
9983,13.0
9984,24.2
9989,30.9
9990,35.6
9991,0.5
9992,33.8
9994,4.6
9995,33.6
9997,16.8
9998,13.1
10001,0.5
10005,10.9
10007,8.3
10010,8.0
10012,33.9
10015,13.4
10016,29.9
10017,23.5
10020,13.8
10022,29.5
10023,17.1
10024,3.0
10026,14.7
10027,13.2
10031,8.8
10035,23.1
10036,31.3
10039,31.4
10040,9.4
10042,31.8
10045,13.8
10046,28.8
10047,10.8
10049,10.8
10050,30.9
10051,23.7
10052,19.2
10053,28.7
10056,23.3
10061,-4.7
10063,30.6
10064,24.8
10065,13.9
10066,11.1
10070,31.1
10071,12.7
10072,31.9
10074,41.6
10075,6.6
10077,26.0
10078,10.0
10081,17.6
10082,34.1
10083,27.7
10084,22.7
10085,6.9
10086,21.0
10087,17.5
10088,36.7
10091,4.8
10092,26.5
10093,22.2
10094,11.2
10095,11.3
10097,7.7
10098,13.3
10099,7.5
10100,16.9
10105,9.6
10106,29.9
10108,22.9
10109,7.7
10112,15.9
10113,29.6
10115,12.1
10116,23.9
10118,28.1
10121,5.1
10122,28.9
10123,10.4
10124,-20.1
10127,11.6
10128,36.1
10129,11.1
10130,34.3
10136,17.8
10137,23.6
10139,19.9
10141,30.4
10143,35.6
10146,13.0
10147,30.2
10149,0.5
10150,13.3
10151,31.2
10154,22.0
10156,26.8
10157,6.9
10158,6.0
10159,6.3
10160,18.3
10161,-4.7
10162,23.8
10168,5.2
10173,39.1
10185,36.8
10186,18.5
10187,34.0
10188,7.0
10189,17.2
10192,36.2
10193,23.1
10194,27.4
10195,25.9
10196,6.7
10197,4.8
10198,32.0
10199,13.3
10201,25.7
10202,34.4
10204,33.5
10205,5.3
10206,21.5
10208,31.4
10210,17.8
10211,18.5
10214,17.8
10215,7.9
10216,34.2
10217,37.0
10219,28.7
10220,6.4
10221,24.5
10223,-22.7
10224,5.3
10225,13.6
10228,8.0
10230,31.9
10231,10.6
10235,20.6
10236,21.0
10237,28.5
10243,14.9
10245,22.3
10246,33.3
10247,36.9
10249,10.9
10250,3.0
10251,10.5
10252,18.0
10254,26.9
10256,22.7
10261,-4.7
10262,26.2
10263,20.0
10264,35.0
10265,23.5
10266,10.8
10268,21.9
10271,5.9
10272,14.7
10273,41.6
10278,19.9
10282,32.2
10283,33.2
10284,30.1
10285,7.8
10286,21.0
10288,32.9
10289,29.8
10290,7.2
10293,26.5
10294,34.6
10295,31.0
10298,10.8
10301,36.9
10302,14.0
10303,19.3
10305,32.6
10306,9.3
10307,34.8
10311,23.6
10313,22.3
10316,25.6
10317,13.5
10319,7.9
10322,31.7
10323,-20.1
10325,19.2
10326,24.9
10327,14.5
10328,34.0
10329,34.8
10331,6.5
10334,34.7
10336,11.0
10337,21.0
10340,18.4
10344,32.0
10345,16.2
10347,16.6
10348,32.4
10349,0.5
10352,10.2
10355,6.4
10356,22.3
10357,35.8
10358,5.2
10360,-7.2
10362,25.0
10366,14.0
10367,36.0
10371,25.7
10372,16.5
10373,41.6
10375,29.8
10377,37.0
10379,9.6
10381,25.2
10384,7.9
10386,18.5
10387,13.4
10388,5.6
10392,27.4
10393,6.7
10395,15.1
10398,10.8
10399,14.9
10401,17.6
10402,25.9
10406,35.9
10407,10.1
10409,6.2
10410,22.1
10411,23.6
10413,30.9
10417,15.1
10418,36.9
10423,-15.0
10425,9.8
10426,25.6
10427,28.4
10428,33.5
10429,4.1
10431,24.9
10432,13.3
10436,21.0
10441,27.8
10442,6.1
10446,27.4
10448,23.3
10449,0.5
10450,23.7
10452,24.2
10453,21.2
10456,34.2
10457,15.8
10458,16.9
10461,-9.8
10464,13.3
10466,22.8
10469,35.3
10473,41.6
10477,11.3
10480,5.9
10482,16.2
10485,18.5
10486,23.5
10490,24.7
10491,28.1
10493,18.3
10494,15.5
10495,25.9
10497,17.3
10498,10.8
10499,16.1
10501,29.7
10503,13.8
10504,8.8
10507,36.7
10510,18.8
10511,26.2
10512,27.9
10514,19.0
10515,16.9
10518,8.4
10519,25.6
10520,17.4
10523,-9.8
10524,4.9
10526,16.6
10528,4.3
10530,4.7
10531,5.4
10532,13.7
10533,37.0
10534,34.4
10535,26.2
10539,7.7
10542,11.3
10547,36.6
10548,5.6
10549,16.5
10551,25.4
10555,35.7
10556,32.4
10558,12.6
10559,-2.1
10560,30.0
10562,20.9
10563,29.7
10564,7.4
10566,4.2
10567,36.0
10568,36.4
10570,17.6
10571,39.1
10576,21.9
10578,5.9
10585,15.9
10586,13.0
10588,36.1
10589,29.1
10591,20.0
10594,21.7
10597,15.9
10602,4.3
10605,17.5
10607,10.3
10609,0.5
10611,27.8
10613,8.0
10615,32.7
10616,25.8
10620,-12.4
10621,8.6
10622,8.7
10623,8.9
10624,9.8
10625,9.1
10626,4.4
10628,13.2
10630,14.8
10632,9.1
10634,33.9
10636,10.4
10637,37.0
10639,23.5
10640,13.8
10641,4.0
10644,7.0
10645,28.0
10646,22.3
10647,13.3
10649,18.9
10650,30.5
10651,11.5
10653,33.4
10654,7.4
10658,7.8
10659,0.5
10660,12.1
10663,26.0
10664,31.3
10665,35.2
10667,14.4
10668,14.5
10669,29.7
10670,18.6
10671,36.5
10674,8.8
10676,29.3
10677,21.5
10679,8.3
10681,31.2
10683,5.6
10686,30.1
10687,18.4
10689,7.9
10690,27.1
10691,25.9
10692,35.6
10693,22.4
10694,31.3
10696,5.4
10699,29.1
10706,10.8
10708,21.3
10710,5.0
10711,34.6
10712,4.6
10713,6.4
10714,33.5
10718,7.4
10720,-4.7
10728,13.5
10729,32.6
10731,35.1
10732,41.6
10733,12.0
10734,6.5
10735,15.0
10736,29.0
10737,30.0
10738,20.8
10740,33.9
10742,34.7
10744,21.0
10746,12.7
10749,19.5
10751,17.5
10752,19.0
10753,28.2
10754,24.8
10755,22.2
10756,9.8
10757,13.3
10758,25.2
10759,26.2
10760,34.6
10761,11.4
10762,16.7
10766,28.9
10769,21.0
10773,20.4
10775,34.1
10777,25.2
10778,35.9
10779,26.2
10782,-22.7
10784,11.5
10787,22.4
10789,29.5
10793,26.0
10796,23.6
10799,7.2
10802,31.2
10803,24.5
10804,33.9
10805,18.7
10806,34.7
10808,0.5
10813,33.8
10814,31.1
10815,17.3
10816,23.0
10818,14.5
10819,-7.2
10823,15.0
10825,14.7
10826,15.4
10827,20.3
10831,41.6
10834,16.3
10835,22.9
10836,27.0
10837,4.7
10839,29.1
10841,10.2
10843,33.5
10844,4.0
10845,21.0
10846,17.8
10850,35.8
10851,22.7
10852,5.6
10853,13.8
10854,33.5
10857,10.8
10858,21.2
10859,30.4
10863,18.2
10865,16.4
10868,28.0
10869,23.6
10871,16.8
10873,17.9
10876,11.9
10877,18.9
10878,13.0
10882,-17.5
10883,18.7
10884,5.4
10885,17.2
10888,8.7
10890,17.7
10891,34.6
10893,17.8
10895,21.0
10900,22.5
10905,13.9
10907,33.7
10908,0.5
10909,5.9
10910,15.8
10912,25.0
10919,-7.2
10920,20.9
10922,10.4
10924,27.9
10927,24.3
10928,9.3
10930,24.2
10931,17.1
10932,44.2
10933,12.9
10936,19.2
10937,31.6
10941,32.4
10944,21.0
10945,10.0
10949,30.5
10953,30.8
10954,21.5
10955,26.3
10956,10.8
10960,11.9
10963,8.6
10966,12.3
10969,26.2
10971,11.0
10977,20.9
10978,29.3
10979,13.0
10980,19.0
10981,8.2
10982,-12.4
10983,7.7
10984,14.9
10987,12.1
10995,21.0
10996,32.8
10997,23.8
10998,14.8
11000,15.2
11001,19.1
11002,31.9
11003,23.3
11004,5.0
11005,9.7
11008,-2.1
11009,20.5
11010,30.7
11011,4.5
11012,13.2
11014,16.2
11019,6.0
11020,-15.0
11023,36.9
11025,11.0
11026,25.7
11027,24.5
11029,15.2
11030,23.8
11032,15.8
11033,28.8
11034,34.7
11036,32.0
11037,14.6
11041,21.7
11044,30.7
11046,8.2
11047,21.3
11050,11.5
11054,13.2
11057,34.1
11058,3.0
11059,8.6
11065,18.4
11069,26.2
11072,10.1
11073,33.1
11074,24.4
11075,7.0
11076,9.2
11077,20.0
11078,35.4
11081,-7.2
11085,23.8
11088,31.4
11089,4.9
11092,6.9
11094,26.2
11095,19.3
11097,34.6
11098,9.8
11100,7.9
11104,26.6
11105,23.5
11106,33.7
11107,8.2
11109,16.6
11111,10.9
11113,32.3
11114,31.5
11115,17.1
11118,-2.1
11121,36.5
11122,31.0
11126,28.8
11128,36.0
11130,41.6
11132,8.0
11134,11.6
11135,9.2
11137,5.5
11141,21.5
11142,34.9
11143,15.9
11146,15.8
11147,10.1
11149,5.5
11150,7.1
11151,23.3
11152,7.5
11155,15.9
11156,11.9
11162,12.0
11165,16.3
11166,11.4
11167,0.5
11168,23.9
11169,6.8
11171,6.0
11175,5.9
11179,4.7
11180,-9.8
11182,27.4
11184,25.4
11186,18.2
11192,39.1
11193,16.4
11194,10.1
11195,15.2
11198,27.6
11200,26.3
11201,27.1
11204,18.5
11205,6.1
11207,28.4
11208,15.7
11209,23.8
11211,4.1
11212,18.8
11216,5.6
11217,36.9
11218,30.8
11219,8.7
11220,4.0
11226,30.2
11227,15.4
11228,21.0
11229,30.5
11230,11.2
11231,28.5
11232,6.7
11233,16.7
11237,24.7
11241,-22.7
11242,19.4
11245,29.8
11249,29.4
11254,23.6
11255,13.4
11259,16.4
11260,18.6
11265,13.5
11267,0.5
11270,12.1
11271,4.4
11275,28.4
11276,24.3
11278,-4.7
11279,35.2
11281,15.6
11285,26.4
11288,27.1
11289,7.4
11290,41.6
11294,6.6
11295,18.9
11297,20.5
11301,36.0
11302,21.0
11303,27.5
11304,15.2
11305,15.4
11306,25.7
11307,25.4
11308,29.1
11309,6.2
11311,4.9
11312,23.0
11315,22.3
11316,13.3
11317,31.1
11318,25.4
11323,19.7
11328,21.0
11329,5.8
11331,25.9
11334,30.3
11335,24.6
11336,9.1
11337,12.1
11338,26.3
11339,16.9
11340,-20.1
11341,24.7
11343,26.4
11344,18.6
11345,16.8
11347,31.3
11351,24.9
11352,10.7
11353,12.1
11354,21.0
11357,9.0
11358,26.6
11362,8.1
11366,0.5
11368,15.7
11370,9.1
11373,32.7
11375,16.5
11378,-7.2
11379,25.0
11383,27.8
11385,25.4
11387,16.1
11390,41.6
11392,11.3
11393,20.4
11395,6.7
11396,31.9
11399,24.0
11400,10.4
11401,5.3
11402,35.0
11403,21.0
11404,12.1
11406,31.4
11407,29.5
11408,12.1
11411,28.8
11415,10.8
11422,22.6
11423,27.0
11427,23.6
11433,32.8
11434,27.2
11435,6.4
11437,8.7
11441,-15.0
11442,18.4
11446,23.8
11449,24.7
11452,32.1
11454,21.0
11455,16.5
11456,10.9
11459,36.0
11462,28.9
11463,21.7
11464,12.5
11465,20.2
11466,0.5
11467,22.3
11470,30.4
11471,20.4
11473,15.3
11474,6.4
11475,36.5
11476,33.6
11477,34.3
11478,-9.8
11480,8.6
11482,7.1
11483,29.7
11484,26.0
11486,5.0
11490,41.6
11496,16.8
11498,15.7
11501,27.1
11502,21.0
11503,17.0
11506,10.1
11509,18.7
11510,30.2
11512,11.3
11514,33.3
11515,10.8
11516,6.1
11521,8.8
11522,10.0
11524,13.2
11528,26.2
11532,35.1
11533,11.3
11538,30.7
11539,12.2
11540,-12.4
11541,35.4
11542,16.1
11543,16.9
11545,34.7
11547,16.7
11549,19.5
11550,17.6
11552,21.5
11553,21.0
11555,20.9
11559,23.4
11561,9.3
11562,13.2
11564,30.5
11566,0.5
11571,13.5
11573,16.1
11575,8.0
11578,-7.2
11579,14.1
11581,24.6
11585,14.4
11587,35.6
11588,23.1
11589,36.0
11590,41.6
11591,17.8
11592,16.6
11597,34.7
11600,32.3
11601,8.7
11602,21.0
11603,26.2
11608,32.6
11609,29.3
11611,28.8
11612,32.9
11614,27.5
11615,8.2
11618,9.9
11620,35.2
11621,28.4
11622,27.2
11623,24.3
11624,23.3
11626,-2.1
11628,11.1
11633,26.6
11634,12.9
11635,8.6
11638,-17.5
11640,8.3
11650,7.6
11652,18.4
11653,26.2
11655,29.8
11656,16.3
11657,4.1
11661,8.9
11662,10.5
11663,33.5
11664,19.2
11665,5.6
11667,36.5
11669,26.8
11671,32.2
11673,26.0
11676,-2.1
11677,27.1
11683,13.5
11685,15.4
11687,20.3
11688,41.6
11691,22.7
11692,32.3
11695,8.5
11697,7.8
11700,21.2
11701,18.5
11704,27.0
11707,5.7
11708,4.8
11711,11.6
11714,15.9
11716,24.2
11717,8.4
11718,13.7
11719,22.3
11721,31.7
11722,35.1
11725,35.3
11726,3.0
11728,29.5
11729,10.4
11730,25.3
11731,33.1
11732,26.9
11733,34.6
11736,27.1
11738,-12.4
11739,12.9
11745,6.1
11746,34.4
11751,33.9
11754,20.1
11755,29.3
11756,18.7
11757,17.0
11758,17.4
11759,11.3
11760,8.6
11761,32.5
11763,13.3
11764,36.3
11765,21.2
11766,10.6
11773,7.7
11774,36.6
11775,33.1
11777,-2.1
11781,31.2
11782,4.9
11785,35.3
11789,44.2
11791,5.6
11792,33.3
11793,26.3
11795,13.6
11800,34.3
11801,18.5
11807,8.2
11809,31.0
11810,29.5
11813,15.9
11815,32.7
11816,10.7
11818,36.8
11819,11.0
11820,32.0
11821,26.3
11824,16.6
11826,5.6
11827,35.3
11828,20.8
11829,35.0
11831,26.8
11833,24.0
11834,20.5
11836,28.4
11837,-12.4
11838,6.8
11839,10.8
11842,4.3
11845,15.1
11846,26.3
11851,31.3
11852,24.0
11853,13.4
11854,18.4
11857,34.2
11859,8.4
11862,22.6
11864,10.8
11866,16.2
11867,17.8
11870,22.8
11871,31.5
11873,7.8
11876,-2.1
11877,10.2
11878,12.6
11879,16.2
11882,32.6
11883,34.0
11885,34.7
11886,16.3
11887,31.2
11888,41.6
11889,36.0
11893,32.9
11894,6.6
11897,33.7
11899,13.6
11900,18.5
11901,7.6
11903,15.4
11904,33.7
11906,27.6
11907,33.5
11908,25.2
11914,15.9
11916,21.8
11917,5.6
11920,35.4
11921,28.2
11922,23.0
11924,29.0
11925,28.3
11926,10.8
11937,13.4
11938,-20.1
11939,25.1
11940,6.0
11944,6.0
11946,12.0
11947,15.5
11948,16.7
11951,20.8
11952,23.6
11957,6.5
11958,11.0
11959,14.9
11961,21.2
11963,25.6
11964,3.0
11972,13.1
11974,25.3
11975,19.8
11976,-4.7
11978,19.1
11983,15.6
11984,5.6
11988,41.6
11989,5.4
11990,25.1
11995,7.4
11996,17.3
11997,34.7
12001,18.5
12003,16.6
12004,18.8
12005,20.1
12006,30.9
12008,22.1
12011,5.2
12012,35.7
12013,13.3
12014,24.1
12015,9.1
12017,19.3
12019,34.1
12021,7.4
12022,33.6
12023,21.4
12024,22.4
12025,15.9
12028,27.2
12031,20.0
12033,7.4
12036,7.1
12038,-22.7
12039,16.1
12040,34.6
12042,18.0
12043,30.4
12044,36.3
12047,7.7
12048,22.8
12049,19.5
12051,31.4
12052,21.0
12053,18.5
12055,23.1
12057,27.5
12058,10.7
12062,10.6
12063,17.7
12064,3.0
12065,19.7
12070,5.4
12071,14.6
12072,4.9
12073,36.0
12074,21.7
12075,16.4
12076,-4.7
12077,12.4
12078,25.2
12084,6.2
12086,15.5
12087,14.8
12088,41.6
12092,27.3
12096,22.0
12099,12.1
12100,18.5
12102,35.4
12104,36.6
12106,23.1
12107,23.6
12108,29.1
12109,9.4
12113,13.3
12114,9.3
12116,17.2
12117,8.7
12119,19.4
12120,29.6
12121,19.9
12124,22.5
12126,18.5
12129,6.2
12130,14.9
12131,30.9
12135,34.7
12137,18.1
12138,-20.1
12142,20.0
12144,32.7
12146,4.1
12147,32.9
12149,10.7
12151,23.6
12153,9.0
12160,21.0
12162,10.7
12164,3.0
12166,33.7
12168,19.2
12169,19.8
12172,16.7
12175,23.6
12176,-4.7
12178,30.8
12179,11.3
12182,14.4
12186,25.1
12187,30.8
12188,44.2
12190,27.4
12193,9.4
12198,8.2
12199,21.1
12200,21.0
12204,35.1
12205,18.1
12212,36.0
12213,10.8
12215,4.1
12217,22.0
12219,31.0
12222,35.1
12223,4.3
12225,21.0
12226,34.2
12229,34.5
12230,8.1
12234,27.8
12235,4.3
12237,-20.1
12243,19.1
12244,31.3
12248,22.3
12251,27.6
12252,21.0
12257,9.5
12258,20.0
12259,19.7
12263,19.0
12264,0.5
12265,28.6
12266,28.9
12268,8.0
12269,29.1
12271,13.7
12274,14.5
12275,-7.2
12276,26.9
12277,19.9
12278,20.6
12280,16.9
12284,4.0
12286,23.9
12288,41.6
12289,4.3
12290,33.9
12292,8.8
12294,5.6
12295,8.7
12297,32.3
12298,8.6
12300,18.5
12302,13.7
12308,13.6
12313,10.8
12314,11.1
12316,26.4
12320,5.7
12323,28.4
12324,20.0
12325,23.6
12326,31.1
12331,25.9
12332,36.5
12333,7.1
12336,24.4
12338,-17.5
12339,34.6
12344,27.5
12349,18.1
12350,8.0
12351,21.0
12355,23.1
12358,24.8
12360,7.6
12361,16.0
12362,24.1
12363,0.5
12365,15.5
12366,17.2
12367,29.4
12368,17.4
12370,5.3
12376,-7.2
12377,24.1
12381,26.5
12382,21.3
12386,11.7
12387,13.5
12388,41.6
12392,12.8
12393,4.6
12395,27.5
12396,9.0
12400,21.0
12402,34.9
12405,31.7
12406,35.2
12407,36.6
12411,16.5
12412,10.8
12413,27.5
12415,10.5
12416,19.1
12417,10.6
12418,26.9
12419,8.2
12424,6.9
12425,26.2
12432,6.5
12433,12.5
12435,36.5
12437,-12.4
12440,27.2
12441,19.1
12442,15.9
12444,13.4
12446,26.2
12451,18.5
12453,17.9
12455,29.2
12461,15.0
12462,30.0
12464,0.5
12466,23.4
12468,6.7
12469,35.2
12470,5.2
12472,27.2
12474,5.4
12475,-7.2
12478,17.1
12481,31.4
12483,9.0
12484,4.3
12485,20.6
12486,8.4
12487,41.6
12488,15.5
12490,22.9
12493,10.9
12495,12.6
12497,19.5
12499,21.0
12500,15.1
12502,19.0
12504,22.4
12505,32.2
12507,11.3
12509,13.5
12510,20.5
12513,10.8
12514,10.8
12517,20.2
12518,6.9
12520,10.2
12522,13.4
12524,17.3
12525,28.8
12527,22.8
12528,31.0
12530,16.7
12534,36.0
12535,27.5
12537,-9.8
12538,34.5
12540,36.5
12543,16.8
12544,13.4
12545,31.4
12550,26.2
12552,30.8
12555,4.8
12558,10.9
12559,35.1
12561,35.3
12562,5.6
12564,26.9
12566,31.0
12568,17.5
12570,16.0
12571,29.7
12574,-2.1
12577,8.7
12578,17.0
12579,15.0
12583,32.3
12584,23.5
12587,41.6
12588,9.5
12590,27.8
12592,26.1
12593,13.6
12594,5.3
12596,5.1
12597,33.1
12598,26.3
12599,18.5
12600,8.7
12601,22.0
12602,25.9
12605,6.8
12606,26.0
12607,16.4
12608,4.6
12610,6.8
12611,15.9
12615,4.8
12616,29.3
12617,13.2
12619,31.2
12623,0.5
12627,20.4
12628,7.8
12629,35.5
12630,10.7
12631,5.9
12635,-12.4
12637,25.3
12638,27.9
12641,36.6
12643,14.6
12646,17.9
12647,25.6
12649,33.9
12650,11.2
12652,23.7
12654,29.2
12656,33.6
12658,30.8
12661,13.3
12662,7.0
12668,5.9
12669,27.8
12670,23.4
12671,21.4
12672,23.6
12674,-2.1
12675,11.7
12677,22.3
12681,21.2
12683,28.0
12685,30.7
12686,41.6
12691,14.2
12693,31.2
12698,18.5
12699,35.9
12701,9.7
12706,25.2
12707,35.3
12708,15.1
12711,15.9
12714,35.4
12715,6.1
12721,21.9
12723,35.1
12724,3.0
12725,28.9
12727,24.6
12729,5.7
12730,28.4
12735,-12.4
12736,5.6
12737,12.7
12738,11.3
12739,18.6
12741,18.0
12742,12.0
12743,17.8
12744,9.6
12747,34.2
12748,33.9
12749,4.8
12750,30.0
12751,6.7
12757,36.5
12759,26.3
12761,13.3
12763,18.2
12764,6.2
12765,32.2
12766,32.6
12767,22.9
12768,29.7
12769,33.5
12770,36.4
12774,-2.1
12775,29.4
12776,31.9
12778,32.8
12779,34.1
12784,11.3
12785,36.8
12786,41.6
12789,32.5
12792,6.9
12796,36.3
12797,26.5
12798,21.0
12799,35.2
12800,26.3
12801,28.5
12804,4.3
12805,24.2
12806,20.4
12809,10.7
12810,18.8
12811,13.3
12813,20.6
12814,36.3
12815,7.1
12816,23.3
12822,8.1
12823,8.2
12826,14.2
12827,26.0
12828,24.0
12834,-12.4
12835,19.7
12837,17.5
12838,32.5
12839,25.4
12840,29.0
12843,7.4
12844,30.8
12845,18.1
12849,31.3
12850,26.8
12851,7.2
12852,20.3
12853,17.1
12856,33.6
12857,25.7
12860,21.9
12861,10.8
12862,35.6
12863,17.5
12865,11.8
12867,22.0
12869,33.9
12870,26.0
12871,4.8
12873,-4.7
12874,28.0
12875,17.1
12876,29.6
12877,25.1
12878,19.2
12879,17.3
12880,23.5
12883,10.1
12886,44.2
12887,18.3
12890,18.6
12892,31.4
12895,21.0
12897,22.8
12898,18.5
12901,26.7
12902,18.8
12903,17.1
12904,35.3
12906,36.7
12907,14.7
12911,13.3
12913,10.2
12916,34.3
12917,23.9
12918,33.4
12921,21.7
12923,13.3
12929,24.1
12931,19.3
12932,23.2
12933,12.0
12934,14.5
12935,21.7
12936,-22.7
12939,8.5
12940,15.3
12941,19.7
12942,19.3
12943,18.3
12944,36.2
12946,31.6
12947,16.5
12949,26.2
12950,4.8
12952,31.7
12961,3.0
12965,34.1
12966,16.2
12967,28.5
12970,4.8
12972,5.0
12973,6.4
12974,-4.7
12975,27.4
12976,34.9
12977,8.1
12979,18.5
12980,33.4
12983,29.8
12984,14.9
12986,41.6
12988,22.2
12989,10.2
12990,6.3
12991,31.2
12992,23.5
12994,35.3
12995,15.6
12997,17.1
12998,21.0
13000,30.4
13002,21.6
13005,18.6
13007,25.4
13008,31.8
13010,13.3
13013,14.2
13020,18.1
13021,5.9
13023,13.3
13026,25.5
13028,29.5
13032,4.1
13035,-22.7
13036,23.9
13038,12.6
13044,23.6
13045,25.1
13047,21.3
13049,21.0
13052,18.8
13054,31.6
13055,20.2
13060,25.1
13061,36.7
13062,3.0
13063,24.7
13065,25.2
13067,29.5
13070,23.5
13072,4.6
13073,-4.7
13075,7.4
13076,32.9
13078,15.2
13079,4.4
13081,25.2
13082,16.9
13085,41.6
13088,24.6
13089,20.3
13095,9.6
13097,18.5
13101,28.9
13102,4.8
13103,25.8
13105,23.8
13107,8.9
13109,10.0
13111,10.8
13114,11.5
13117,10.2
13118,24.0
13119,31.1
13120,24.9
13123,21.0
13126,4.5
13129,9.5
13132,5.4
13133,29.8
13134,20.4
13135,-22.7
13137,10.5
13138,35.0
13139,30.8
13142,29.9
13144,33.9
13145,25.5
13148,18.0
13149,23.6
13152,12.6
13155,30.6
13157,18.9
13160,11.9
13161,0.5
13163,35.2
13165,28.2
13166,13.5
13167,4.8
13168,30.7
13171,20.3
13173,-4.7
13174,29.8
13179,7.0
13183,25.2
13186,41.6
13187,13.1
13188,16.9
13190,25.9
13193,23.7
13196,33.7
13198,18.5
13200,26.4
13210,10.8
13211,34.0
13214,12.4
13222,23.6
13224,27.8
13225,21.9
13226,20.3
13228,10.9
13230,25.3
13231,12.4
13232,16.3
13235,-17.5
13236,12.4
13237,27.9
13238,13.3
13242,25.6
13243,33.6
13245,36.2
13249,21.0
13250,25.9
13251,17.8
13253,34.6
13255,21.0
13258,26.0
13261,0.5
13263,32.8
13264,20.7
13265,30.0
13266,22.5
13268,32.3
13272,25.8
13273,-7.2
13275,34.6
13277,25.6
13279,35.2
13283,24.8
13285,41.6
13286,32.2
13287,31.5
13288,11.1
13290,36.3
13291,31.4
13292,21.1
13295,11.9
13296,5.0
13297,18.5
13299,25.9
13300,19.2
13301,16.0
13302,19.5
13305,34.5
13309,33.7
13310,10.8
13311,13.6
13312,9.2
13313,33.2
13314,17.5
13322,30.5
13323,23.6
13326,22.5
13329,25.7
13335,-12.4
13338,25.4
13339,13.9
13340,32.8
13342,28.1
13344,36.9
13346,26.8
13348,21.0
13349,32.6
13351,5.0
13353,4.8
13354,27.9
13356,14.1
13357,30.4
13360,15.9
13361,0.5
13363,27.8
13369,23.7
13370,21.6
13373,-7.2
13376,17.2
13377,9.5
13378,31.2
13379,5.7
13385,41.6
13386,10.5
13387,9.7
13389,36.5
13392,23.9
13397,10.5
13398,21.0
13401,5.5
13403,19.4
13405,11.5
13408,28.4
13410,10.8
13414,33.9
13415,31.9
13416,23.5
13417,12.9
13418,30.0
13419,15.4
13421,24.8
13422,26.2
13425,26.6
13428,12.0
13429,34.5
13430,6.1
13431,8.5
13432,22.5
13433,15.6
13434,-9.8
13437,15.7
13439,26.3
13440,26.7
13441,25.0
13443,13.9
13444,15.3
13448,26.2
13449,25.7
13450,35.7
13453,7.1
13454,10.9
13457,11.5
13459,6.1
13460,8.2
13468,34.0
13470,23.7
13471,-2.1
13473,29.5
13474,26.7
13480,26.6
13484,41.6
13485,31.2
13486,28.8
13488,24.5
13493,31.5
13494,14.9
13495,6.6
13496,18.5
13498,27.8
13499,33.9
13500,7.7
13502,11.9
13506,15.6
13509,15.9
13512,5.0
13513,36.8
13514,9.5
13515,15.8
13516,33.2
13517,31.0
13521,-2.1
13523,8.9
13524,18.3
13529,26.3
13531,33.9
13533,30.6
13534,-17.5
13535,15.4
13541,26.8
13542,21.3
13543,20.4
13547,26.2
13548,21.4
13549,22.3
13551,26.3
13552,15.5
13554,15.3
13558,6.6
13559,8.2
13564,24.9
13565,18.2
13571,5.4
13572,-2.1
13574,23.9
13576,34.0
13578,6.7
13579,11.7
13580,7.1
13582,19.7
13583,33.8
13584,41.6
13587,14.0
13590,31.4
13592,14.3
13593,26.6
13595,26.7
13596,18.5
13608,15.9
13610,27.1
13613,34.5
13614,17.8
13615,19.6
13617,21.9
13620,7.6
13621,0.5
13622,19.0
13624,12.2
13628,12.3
13629,7.2
13632,-12.4
13634,31.8
13635,31.9
13641,26.0
13644,31.4
13645,16.4
13646,33.9
13647,18.0
13648,27.8
13650,32.7
13651,9.5
13653,18.0
13654,33.1
13656,9.7
13657,18.0
13658,21.0
13659,13.3
13661,21.3
13662,20.9
13665,29.9
13666,18.6
13669,9.3
13670,23.4
13671,-2.1
13672,34.8
13673,18.0
13674,11.7
13675,23.9
13680,18.2
13683,41.6
13687,4.7
13688,31.9
13689,34.5
13690,23.7
13691,35.3
13694,18.4
13696,18.5
13699,20.3
13700,6.0
13701,15.1
13703,27.5
13705,27.8
13706,31.1
13709,15.9
13711,21.8
13714,34.3
13716,8.1
13717,26.3
13721,5.6
13722,27.9
13724,18.5
13725,26.3
13729,7.3
13730,9.7
13731,29.1
13732,-12.4
13736,13.3
13738,11.6
13739,29.6
13742,34.4
13743,21.5
13746,33.9
13749,5.3
13750,20.6
13758,10.8
13766,32.1
13767,7.0
13769,13.6
13770,9.0
13771,-4.7
13773,8.8
13774,24.1
13775,12.0
13776,13.8
13777,5.5
13779,26.4
13780,22.2
13781,29.9
13784,41.6
13791,11.8
13792,12.1
13794,8.4
13795,15.9
13796,18.5
13797,16.2
13798,16.5
13803,10.1
13804,24.1
13805,7.6
13808,13.3
13813,14.9
13815,23.5
13816,28.7
13817,24.7
13819,10.4
13820,10.8
13821,6.8
13822,32.1
13823,10.7
13824,13.9
13831,18.4
13832,24.3
13833,-20.1
13835,11.4
13836,30.3
13837,33.3
13839,26.6
13841,32.2
13842,25.9
13844,23.3
13845,20.0
13847,26.2
13848,26.4
13850,7.5
13851,4.5
13854,8.9
13856,23.3
13859,5.6
13861,35.3
13862,34.9
13863,24.0
13867,16.9
13868,29.8
13869,15.2
13871,-4.7
13872,6.1
13873,18.9
13876,32.3
13878,20.8
13879,31.8
13880,8.7
13882,24.3
13883,44.2
13885,28.5
13886,28.1
13887,20.1
13891,31.1
13892,9.1
13895,18.5
13898,7.2
13900,22.1
13901,17.1
13903,33.7
13904,30.0
13907,18.6
13908,13.3
13910,26.4
13913,18.4
13916,20.0
13917,29.5
13919,15.8
13920,22.6
13921,13.3
13925,26.5
13928,20.1
13931,18.6
13932,13.6
13933,-20.1
13934,32.1
13935,28.4
13938,31.7
13940,6.7
13941,32.5
13942,5.9
13946,23.6
13947,13.0
13950,5.7
13953,30.7
13954,9.9
13956,8.3
13957,25.3
13959,3.0
13961,28.5
13965,21.2
13968,22.5
13969,22.3
13970,5.1
13971,-4.7
13972,11.0
13974,35.0
13976,25.1
13977,33.1
13980,9.6
13982,14.4
13983,41.6
13984,17.2
13986,29.1
13988,5.6
13989,25.4
13991,5.6
13994,4.3
13995,29.8
13996,18.5
13997,30.0
13998,13.0
14002,26.6
14007,19.2
14008,13.3
14009,15.5
14011,24.6
14012,21.7
14015,27.9
14018,11.9
14020,15.9
14022,18.0
14023,20.7
14025,5.5
14026,33.3
14027,31.4
14030,25.9
14032,-22.7
14033,18.7
14036,6.4
14043,32.8
14045,14.3
14046,12.0
14047,23.6
14051,13.3
14055,6.0
14056,22.0
14057,9.3
14059,3.0
14063,4.1
14064,11.8
14067,25.7
14070,-4.7
14071,9.6
14072,30.3
14074,9.7
14076,29.4
14077,28.4
14079,26.6
14080,6.5
14081,28.8
14083,41.6
14084,16.8
14087,8.0
14092,29.7
14093,17.6
14094,17.7
14095,21.0
14096,4.3
14099,21.7
14100,26.3
14101,26.4
14106,25.4
14107,27.1
14108,10.8
14109,36.7
14110,28.4
14111,23.8
14112,19.4
14113,20.8
14117,27.3
14118,25.4
14120,18.5
14121,18.1
14124,10.1
14127,5.4
14132,15.7
14133,-22.7
14134,6.7
14135,27.1
14139,7.3
14140,5.7
14145,19.6
14146,21.0
14149,4.3
14150,7.8
14154,12.0
14158,3.0
14159,22.5
14161,32.8
14164,4.9
14166,25.6
14167,21.6
14168,24.0
14171,-4.7
14178,7.4
14179,11.2
14180,4.2
14181,16.3
14183,41.6
14185,29.2
14187,33.1
14188,23.3
14195,18.5
14197,6.7
14198,12.7
14202,25.2
14203,15.9
14204,34.8
14208,10.8
14210,17.9
14212,19.6
14213,24.4
14214,15.4
14216,16.9
14217,7.8
14220,23.6
14222,10.1
14223,18.1
14225,6.6
14226,18.5
14229,28.2
14231,30.8
14232,-17.5
14233,26.7
14237,26.3
14238,20.5
14239,28.8
14240,31.9
14245,11.9
14246,21.0
14249,15.7
14250,7.5
14253,28.5
14258,29.2
14259,0.5
14260,16.6
14261,29.6
14263,21.9
14268,35.0
14269,16.3
14270,-7.2
14271,20.3
14273,19.1
14274,10.5
14275,31.9
14276,21.3
14277,28.7
14278,31.2
14280,5.5
14281,28.1
14282,41.6
14284,11.2
14290,25.6
14292,27.7
14293,35.5
14294,26.0
14295,21.0
14297,35.7
14298,14.0
14299,30.0
14300,33.2
14301,9.8
14305,18.0
14307,28.0
14308,10.8
14309,4.0
14310,35.4
14311,7.6
14312,30.6
14314,17.7
14315,7.2
14316,13.8
14317,24.7
14318,7.4
14319,10.1
14320,23.6
14321,20.9
14327,7.7
14330,17.1
14332,-15.0
14334,21.6
14335,17.9
14336,33.3
14337,17.7
14338,19.8
14340,31.8
14342,16.8
14344,16.4
14346,21.0
14347,36.2
14348,16.8
14349,20.8
14350,19.9
14351,4.7
14352,16.5
14353,22.4
14354,35.7
14357,4.1
14358,0.5
14359,13.2
14363,11.3
14365,26.5
14369,34.4
14370,-7.2
14372,11.5
14374,28.1
14377,26.8
14378,6.6
14381,15.4
14382,36.2
14383,41.6
14384,28.6
14385,8.8
14386,35.5
14391,36.6
14393,23.6
14394,25.8
14395,18.5
14396,9.5
14398,34.9
14399,16.6
14401,23.7
14405,13.2
14407,10.8
14409,5.4
14412,12.7
14415,16.4
14417,34.9
14418,8.8
14419,26.2
14421,7.1
14422,21.9
14423,9.6
14424,20.9
14425,13.3
14428,8.1
14429,10.4
14432,-9.8
14434,6.9
14436,7.8
14438,27.0
14439,29.5
14442,35.2
14445,26.2
14452,25.5
14454,32.0
14457,8.2
14458,19.9
14462,26.3
14463,21.4
14467,28.1
14469,-2.1
14473,31.6
14477,21.2
14481,41.6
14483,12.3
14486,23.0
14491,33.5
14493,18.5
14494,23.2
14495,18.8
14496,23.8
14497,14.4
14498,34.7
14507,18.5
14508,8.4
14509,20.2
14510,7.6
14514,22.0
14515,17.5
14516,15.1
14519,-2.1
14520,17.8
14521,21.1
14522,7.1
14524,24.5
14526,25.9
14528,36.8
14529,33.4
14530,4.3
14531,-20.1
14534,6.5
14536,11.0
14537,30.4
14538,32.2
14540,32.6
14544,26.2
14547,14.3
14551,32.4
14553,7.1
14554,17.5
14556,31.4
14557,5.6
14559,9.5
14561,19.2
14562,35.5
14565,31.5
14569,-2.1
14570,18.8
14574,9.9
14576,32.6
14581,41.6
14582,17.7
14585,17.8
14586,14.1
14587,17.5
14588,20.1
14592,22.5
14594,15.9
14595,6.3
14596,22.9
14597,33.4
14599,21.3
14600,26.8
14606,15.9
14607,23.5
14609,23.2
14610,23.3
14611,16.9
14612,36.3
14618,3.0
14619,9.5
14625,5.6
14626,29.2
14627,25.2
14628,4.4
14629,-9.8
14630,6.5
14636,36.7
14638,15.5
14640,30.2
14641,27.0
14642,7.8
14643,39.1
14644,11.3
14646,36.5
14650,10.4
14652,34.4
14654,30.5
14655,18.5
14658,12.0
14659,19.5
14661,32.4
14663,14.9
14664,23.1
14667,3.0
14668,28.9
14670,5.5
14672,26.7
14673,31.5
14674,12.0
14675,26.2
14676,23.8
14678,28.7
14679,18.5
14680,16.3
14684,29.6
14685,20.6
14688,15.3
14690,17.9
14691,-22.7
14694,35.9
14698,32.6
14700,26.4
14703,34.3
14704,22.1
14705,23.6
14707,31.4
14709,9.1
14717,0.5
14720,32.1
14721,37.0
14723,11.2
14726,24.9
14729,-7.2
14734,8.8
14738,14.6
14740,35.7
14741,41.6
14743,15.3
14744,18.5
14747,13.0
14750,31.5
14751,27.1
14753,21.0
14757,10.1
14758,22.4
14759,33.0
14761,24.8
14762,31.8
14764,33.8
14766,10.8
14768,31.4
14770,31.5
14771,32.6
14774,33.6
14776,33.9
14777,7.5
14779,21.0
14780,27.2
14781,10.0
14785,10.2
14786,30.8
14787,8.0
14788,21.9
14790,11.7
14791,-22.7
14793,23.7
14794,15.8
14799,7.2
14802,10.9
14804,23.6
14806,29.5
14810,12.3
14811,11.7
14814,14.4
14816,11.2
14817,0.5
14820,5.7
14822,12.0
14823,33.5
14824,30.4
14825,23.7
14828,-4.7
14829,21.2
14831,28.3
14833,29.6
14834,24.5
14841,41.6
14842,25.5
14844,18.1
14845,25.8
14852,16.0
14854,21.0
14855,30.0
14856,21.8
14857,8.5
14860,13.2
14861,28.1
14862,22.6
14863,28.7
14866,10.8
14867,24.0
14868,9.8
14869,7.6
14870,20.0
14872,29.6
14875,10.2
14877,25.5
14878,23.6
14880,29.1
14881,7.1
14882,17.2
14883,6.1
14886,33.0
14887,11.1
14889,24.5
14891,-15.0
14892,10.3
14895,18.2
14896,4.9
14898,26.8
14903,8.0
14904,25.7
14905,21.0
14906,27.3
14911,36.2
14916,27.3
14917,0.5
14920,9.9
14921,8.4
14923,9.7
14927,9.6
14928,-4.7
14932,32.1
14933,12.9
14937,26.7
14940,21.3
14941,41.6
14950,30.1
14953,18.5
14959,27.8
14960,30.8
14961,6.0
14965,10.8
14968,26.2
14971,12.1
14972,28.2
14974,18.3
14979,26.2
14982,14.2
14984,4.5
14986,33.4
14989,7.3
14991,-15.0
14993,30.1
14995,13.6
14996,9.6
15000,29.1
15001,22.2
15002,32.1
15004,21.0
15006,9.1
15009,36.5
15011,5.0
15014,26.9
15016,0.5
15018,12.1
15019,31.6
15020,16.1
15024,27.0
15026,14.2
15028,-7.2
15030,17.6
15031,27.2
15032,35.0
15036,7.9
15040,28.3
15041,41.6
15042,18.1
15045,6.1
15046,15.1
15050,36.7
15051,4.3
15052,30.5
15053,21.0
15056,13.4
15059,14.2
15060,15.6
15062,24.5
15064,24.5
15066,10.8
15067,6.1
15069,10.4
15071,5.3
15073,14.3
15074,25.0
15076,13.9
15077,14.7
15078,26.2
15083,7.1
15087,24.9
15088,5.8
15089,34.0
15090,-9.8
15091,9.9
15092,32.4
15098,26.0
15099,31.1
15100,6.3
15102,25.2
15103,14.5
15104,26.2
15106,14.5
15109,12.8
15112,28.7
15114,23.6
15115,9.8
15116,5.6
15118,24.9
15123,9.8
15124,19.8
15126,27.5
15127,-2.1
15129,18.3
15130,25.9
15131,37.0
15132,23.8
15134,29.6
15135,22.8
15136,11.7
15137,21.7
15138,7.1
15139,41.6
15140,12.3
15141,31.5
15143,24.6
15146,21.9
15148,28.9
15151,24.1
15152,18.5
15155,4.5
15157,24.5
15158,11.6
15161,30.2
15164,15.9
15166,8.2
15170,25.6
15172,32.3
15173,13.7
15175,16.5
15177,-2.1
15179,26.2
15183,20.9
15184,10.2
15186,17.5
15190,-20.1
15191,10.7
15192,13.9
15193,21.1
15200,23.9
15202,35.4
15203,26.2
15204,12.5
15205,19.6
15209,7.4
15210,35.6
15212,21.4
15213,18.4
15214,24.2
15215,5.6
15217,28.1
15218,20.8
15219,29.6
15220,15.9
15221,13.5
15225,13.4
15226,-2.1
15227,28.0
15229,9.8
15232,35.1
15234,35.2
15235,22.3
15236,15.3
15240,41.6
15241,18.8
15243,10.7
15249,31.1
15251,4.7
15252,15.9
15254,32.4
15256,9.4
15261,29.1
15262,22.5
15264,15.9
15269,33.8
15272,21.3
15273,24.5
15277,3.0
15279,16.3
15281,13.0
15282,36.5
15283,19.8
15288,-15.0
15289,24.8
15296,4.3
15299,22.8
15302,33.9
15303,30.6
15304,24.0
15309,35.7
15310,13.4
15311,10.9
15312,23.8
15314,10.8
15315,31.7
15316,19.5
15319,14.8
15321,12.5
15323,8.1
15324,22.1
15326,10.6
15327,-2.1
15329,5.2
15330,23.5
15332,23.4
15335,13.0
15338,22.2
15339,44.2
15340,35.3
15349,11.0
15351,18.5
15352,13.1
15353,13.4
15354,28.1
15355,25.3
15361,26.0
15362,21.0
15363,18.3
15364,15.9
15365,18.8
15367,21.8
15369,23.1
15371,19.1
15372,17.5
15374,7.5
15375,27.1
15376,32.2
15377,5.6
15378,4.7
15379,32.5
15380,32.2
15381,23.3
15384,6.8
15385,12.6
15387,18.5
15388,-15.0
15390,6.7
15393,4.9
15395,29.0
15401,33.9
15403,30.3
15404,12.6
15406,35.4
15408,27.6
15411,35.2
15412,7.4
15414,13.3
15415,16.9
15421,31.4
15426,-2.1
15427,17.8
15428,28.0
15429,4.0
15430,15.2
15432,21.9
15439,41.6
15440,20.7
15441,35.1
15442,26.6
15443,16.7
15446,25.9
15449,12.6
15450,33.3
15451,26.5
15452,18.5
15455,10.7
15456,26.9
15457,36.0
15463,16.1
15464,13.3
15473,33.3
15474,36.5
15475,23.0
15476,8.2
15482,14.8
15483,33.1
15485,36.7
15487,13.2
15488,-15.0
15489,29.1
15491,4.5
15492,15.1
15493,17.5
15494,32.3
15502,31.3
15506,23.0
15509,35.3
15510,20.0
15512,14.3
15514,10.8
15516,8.5
15522,27.5
15524,33.7
15526,-4.7
15533,33.7
15534,30.2
15538,18.3
15539,41.6
15540,19.6
15542,27.2
15543,23.4
15544,33.7
15546,30.5
15551,21.0
15552,8.1
15553,35.6
15555,31.9
15558,14.9
15560,36.4
15563,13.3
15569,26.5
15570,11.9
15571,14.7
15574,27.3
15575,20.2
15577,10.8
15579,28.6
15581,28.9
15583,32.9
15584,13.9
15585,36.8
15589,-20.1
15596,6.4
15597,17.6
15600,28.9
15601,21.1
15602,23.6
15603,13.5
15604,12.1
15605,28.7
15606,32.4
15607,32.6
15608,26.1
15610,10.5
15614,3.0
15615,20.9
15616,11.3
15617,27.8
15621,6.8
15626,-4.7
15628,29.4
15629,32.1
15632,8.7
15634,22.1
15635,16.5
15637,15.0
15639,44.2
15640,35.9
15642,24.1
15643,10.9
15644,29.1
15646,25.2
15648,20.6
15650,16.2
15651,21.0
15652,33.9
15653,33.8
15656,20.2
15659,15.6
15664,13.3
15665,16.4
15670,19.7
15673,33.4
15674,16.8
15676,15.9
15677,17.7
15682,5.7
15683,10.4
15684,17.9
15685,12.4
15686,26.4
15687,11.0
15688,-25.3
15689,23.6
15694,17.3
15695,29.8
15697,16.5
15698,28.4
15699,12.1
15700,7.5
15703,23.6
15705,6.4
15707,35.8
15710,10.5
15711,16.2
15712,26.4
15713,6.9
15714,27.6
15715,3.0
15717,28.5
15718,5.6
15720,33.1
15721,31.7
15722,33.2
15723,13.9
15724,32.6
15726,-7.2
15727,19.2
15728,33.2
15729,9.7
15732,17.6
15733,8.5
15735,12.1
15736,16.9
15738,41.6
15746,21.8
15748,27.0
15749,20.8
15750,33.8
15751,18.5
15753,22.3
15755,33.3
15756,20.1
15757,20.4
15759,29.9
15763,10.8
15764,35.9
15766,32.3
15768,24.2
15770,26.6
15773,25.5
15774,35.1
15776,18.5
15777,31.7
15781,27.5
15787,8.6
15788,15.7
15789,-22.7
15790,10.3
15795,28.7
15796,30.0
15802,23.6
15805,33.0
15812,32.7
15813,35.8
15814,3.0
15815,29.9
15816,19.7
15818,19.4
15821,22.4
15822,13.3
15823,12.7
15824,9.0
15825,-4.7
15826,35.6
15829,19.8
15832,19.4
15834,6.7
15835,23.7
15836,15.6
15837,13.8
15838,6.5
15839,41.6
15840,28.9
15843,29.3
15845,25.5
15847,10.9
15849,24.5
15851,18.5
15854,5.9
15855,5.1
15858,27.7
15861,22.8
15863,10.8
15867,13.2
15870,5.1
15871,17.5
15872,17.1
15873,28.0
15876,21.0
15877,9.0
15878,28.6
15880,27.8
15883,15.3
15888,-20.1
15889,21.3
15891,35.6
15892,15.0
15894,25.7
15895,16.1
15896,15.3
15898,9.9
15902,21.0
15903,10.6
15906,26.3
15908,35.1
15909,18.2
15911,5.1
15915,0.5
15916,26.6
15918,34.2
15922,29.2
15923,32.4
15924,5.2
15925,19.4
15926,-7.2
15929,32.2
15930,22.8
15932,6.6
15938,41.6
15941,6.0
15943,12.1
15946,14.2
15947,36.7
15950,21.0
15951,26.0
15954,31.2
15956,6.6
15958,23.8
15959,29.3
15960,20.6
15963,10.8
15966,23.5
15969,17.2
15971,14.4
15972,6.7
15973,22.1
15976,23.6
15980,26.5
15988,-17.5
15990,14.5
15991,11.1
15995,35.7
16002,21.0
16003,30.0
16004,13.1
16006,18.1
16009,14.3
16013,14.1
16014,0.5
16015,18.8
16024,34.5
16025,-7.2
16027,20.9
16029,29.2
16030,17.5
16033,20.1
16034,4.0
16035,27.8
16038,41.6
16042,28.2
16050,17.6
16051,18.5
16056,26.2
16057,32.3
16060,31.5
16063,10.8
16064,22.1
16066,8.9
16068,24.3
16069,28.4
16071,27.5
16075,23.6
16077,16.2
16078,15.3
16080,23.8
16082,16.4
16084,21.4
16087,24.4
16088,-12.4
16090,13.1
16092,9.4
16096,11.7
16097,11.6
16098,28.1
16099,23.0
16100,10.1
16102,18.5
16105,18.0
16106,13.4
16114,0.5
16115,4.6
16116,13.2
16117,19.9
16119,12.0
16120,21.7
16121,9.8
16124,9.1
16125,-7.2
16128,12.4
16129,15.7
16132,11.1
16134,6.9
16138,41.6
16140,16.8
16141,5.1
16142,20.0
16143,18.9
16144,12.0
16149,22.2
16150,18.5
16159,31.7
16161,12.4
16162,8.2
16170,28.2
16171,20.5
16175,-2.1
16179,9.5
16181,19.0
16184,32.5
16185,31.3
16187,-17.5
16188,4.1
16189,14.8
16190,12.7
16191,7.4
16193,34.7
16195,28.6
16197,26.2
16198,34.2
16200,23.6
16202,11.5
16203,20.7
16205,25.3
16207,31.7
16208,36.7
16211,21.7
16212,5.6
16214,28.7
16215,27.1
16216,32.4
16217,17.6
16222,34.5
16224,-2.1
16228,32.5
16232,19.8
16236,7.2
16237,39.1
16238,7.0
16239,10.7
16240,16.1
16241,20.7
16243,10.2
16244,8.7
16245,21.0
16246,10.5
16247,33.7
16249,18.5
16250,36.0
16253,29.5
16254,21.6
16258,6.6
16259,10.9
16262,15.9
16264,24.5
16266,21.4
16268,21.8
16271,25.0
16273,26.9
16274,0.5
16275,20.1
16277,23.9
16279,15.3
16280,24.5
16281,24.5
16283,30.7
16285,-12.4
16291,21.2
16293,27.3
16295,26.4
16296,36.1
16300,33.9
16302,34.3
16304,36.0
16305,22.3
16306,16.4
16310,15.9
16311,21.1
16312,13.3
16319,33.3
16324,-2.1
16325,32.6
16326,16.4
16327,15.4
16331,24.5
16333,11.1
16335,10.8
16336,41.6
16338,32.2
16339,23.4
16342,14.3
16345,29.2
16347,22.9
16349,18.5
16350,22.1
16351,27.6
16352,5.4
16355,5.8
16356,10.5
16357,21.6
16360,31.0
16361,15.9
16362,32.6
16365,10.2
16366,8.2
16371,24.0
16374,3.0
16376,30.9
16378,14.3
16381,9.2
16382,26.7
16383,32.9
16386,-12.4
16387,22.9
16389,28.6
16392,12.0
16394,29.2
16396,5.7
16397,23.4
16399,31.3
16401,34.5
16403,9.7
16407,21.0
16408,9.1
16409,33.9
16411,10.8
16414,13.7
16418,36.7
16419,13.8
16420,17.3
16421,10.5
16422,6.8
16423,-4.7
16424,33.1
16426,15.8
16429,10.5
16432,5.8
16433,6.1
16434,11.4
16435,10.3
16437,41.6
16440,30.7
16442,13.8
16444,18.8
16445,21.6
16449,18.5
16453,26.2
16454,7.3
16455,5.6
16456,37.0
16457,28.4
16461,15.9
16463,15.9
16465,22.1
16466,25.9
16470,14.3
16472,19.1
16473,28.5
16474,5.6
16475,27.4
16476,11.8
16478,30.4
16479,14.7
16480,33.2
16485,-12.4
16487,7.9
16488,22.4
16489,36.1
16492,23.7
16493,7.2
16494,17.4
16496,24.3
16497,33.9
16499,33.9
16500,12.8
16501,9.0
16505,17.8
16509,26.6
16510,34.9
16511,34.3
16512,13.3
16515,30.5
16516,4.8
16518,36.1
16519,34.3
16522,28.7
16523,36.4
16524,-4.7
16528,16.6
16530,24.3
16533,4.6
16534,33.5
16535,33.3
16536,44.2
16541,32.0
16543,28.0
16545,25.0
16548,18.5
16549,9.3
16551,12.3
16561,13.3
16563,30.4
16568,8.1
16569,21.7
16571,17.8
16573,20.6
16574,8.2
16576,8.2
16578,26.7
16579,24.9
16582,20.5
16585,-12.4
16593,34.6
16596,17.3
16599,31.3
16600,25.5
16602,16.6
16603,24.4
16605,29.7
16606,35.5
16608,5.0
16610,10.4
16611,10.8
16612,12.9
16613,22.9
16615,34.8
16616,6.8
16618,4.1
16619,15.4
16621,11.6
16622,25.8
16623,-4.7
16627,24.9
16629,34.4
16630,35.3
16631,15.6
16633,8.3
16634,8.4
16636,41.6
16639,24.7
16640,5.6
16641,10.6
16642,8.8
16644,5.5
16645,25.3
16646,19.3
16649,18.5
16655,31.9
16659,22.4
16660,24.3
16661,13.3
16663,28.3
16666,12.4
16667,10.3
16668,19.3
16670,8.0
16671,24.1
16673,13.3
16675,6.9
16676,15.0
16682,33.7
16683,30.8
16686,-22.7
16689,14.9
16692,36.9
16693,33.2
16696,30.5
16697,4.8
16698,34.7
16699,34.1
16700,23.6
16701,35.3
16704,17.2
16707,30.6
16709,5.4
16710,22.2
16711,9.7
16712,3.0
16713,34.9
16715,10.0
16717,4.4
16722,29.8
16723,-4.7
16724,32.0
16727,33.3
16729,12.7
16732,35.5
16733,17.2
16736,44.2
16745,36.3
16748,18.5
16750,35.9
16754,5.4
16755,23.1
16756,12.5
16758,6.8
16760,13.3
16764,20.6
16765,28.0
16767,20.7
16771,18.4
16774,15.9
16776,35.8
16777,12.6
16780,5.2
16781,33.7
16782,14.9
16783,31.8
16785,18.2
16786,-22.7
16795,8.4
16796,21.0
16799,21.0
16801,20.2
16805,20.8
16807,20.8
16810,28.0
16811,16.6
16812,3.0
16814,18.0
16817,36.4
16819,36.2
16822,24.6
16823,-4.7
16826,11.8
16830,10.8
16831,25.7
16833,5.7
16836,41.6
16837,25.4
16840,33.2
16845,8.6
16846,23.5
16848,21.0
16850,33.2
16851,36.7
16852,30.4
16853,32.6
16854,22.3
16855,4.3
16856,13.2
16857,31.4
16861,13.3
16862,13.1
16866,28.9
16867,33.8
16873,18.5
16874,6.6
16875,23.1
16876,4.5
16877,20.8
16878,10.8
16880,8.0
16881,27.8
16882,12.5
16883,36.8
16885,-22.7
16887,23.4
16888,36.7
16899,14.6
16900,21.0
16901,12.1
16904,9.6
16910,27.7
16911,13.6
16912,3.0
16913,6.4
16915,27.5
16919,8.0
16921,19.2
16923,-4.7
16924,22.6
16933,5.6
16934,15.9
16935,41.6
16936,14.2
16938,8.2
16939,11.9
16941,15.8
16944,7.1
16945,28.3
16947,19.6
16948,18.5
16949,25.1
16951,31.1
16952,14.9
16955,11.3
16957,25.7
16958,17.0
16959,4.3
16960,13.3
16964,22.4
16965,32.5
16966,29.1
16968,17.3
16970,24.7
16972,28.7
16973,21.0
16974,17.7
16977,30.4
16981,16.5
16986,-20.1
16988,25.8
16990,23.6
16991,9.5
16992,29.6
16993,35.0
16994,21.6
16997,10.1
16999,21.0
17002,33.2
17005,21.3
17007,9.4
17010,21.7
17011,0.5
17015,4.1
17016,29.2
17017,21.4
17019,9.1
17022,-7.2
17024,16.3
17029,5.4
17036,41.6
17037,33.6
17039,21.0
17043,18.1
17046,28.0
17047,26.5
17048,21.0
17050,31.4
17052,20.0
17054,17.5
17055,20.3
17056,4.6
17060,10.8
17068,35.3
17071,13.2
17073,23.6
17074,30.5
17076,11.2
17077,36.1
17078,28.2
17080,23.0
17084,31.4
17085,-17.5
17086,19.7
17090,8.8
17091,11.6
17092,25.0
17095,6.7
17096,19.8
17098,33.6
17099,21.0
17100,26.6
17106,27.4
17107,23.8
17111,9.2
17112,0.5
17115,20.6
17117,24.5
17118,13.1
17119,27.4
17121,35.9
17122,6.9
17123,-7.2
17124,26.6
17125,27.3
17126,13.6
17129,21.4
17133,26.6
17134,36.4
17135,41.6
17136,9.2
17137,18.6
17138,29.1
17139,31.7
17143,25.5
17147,18.5
17150,30.1
17153,24.4
17156,18.0
17159,15.0
17160,10.8
17164,12.9
17165,17.4
17168,30.0
17169,6.4
17170,15.8
17171,25.2
17172,14.3
17173,26.2
17174,7.7
17175,17.3
17176,21.5
17178,18.1
17179,34.9
17181,4.3
17183,30.7
17184,22.7
17185,-15.0
17187,10.8
17189,28.3
17191,31.0
17194,6.0
17195,7.6
17199,18.5
17200,29.9
17201,31.6
17203,6.8
17208,28.3
17211,0.5
17213,23.0
17220,25.5
17222,-7.2
17225,9.1
17226,34.4
17228,8.8
17232,21.3
17233,29.1
17235,41.6
17239,30.1
17244,11.1
17245,29.5
17246,23.8
17247,19.8
17248,21.0
17249,17.5
17250,5.6
17251,24.7
17256,29.3
17257,18.4
17259,26.9
17260,10.8
17262,35.5
17263,30.5
17266,32.9
17270,36.0
17271,13.1
17272,26.2
17274,30.2
17275,10.5
17278,13.9
17282,4.2
17283,31.7
17284,15.0
17285,-9.8
17287,11.2
17289,28.7
17292,16.4
17297,33.1
17298,26.2
17300,17.2
17301,36.6
17303,20.0
17305,34.6
17306,14.8
17308,13.0
17309,33.1
17310,5.6
17315,15.4
17318,23.3
17319,33.5
17320,5.3
17321,-2.1
17323,33.4
17325,20.0
17326,12.8
17329,28.7
17333,36.7
17334,41.6
17346,18.5
17347,24.9
17348,8.5
17350,8.5
17351,24.8
17353,28.7
17357,17.0
17358,15.9
17360,27.0
17361,30.2
17362,24.6
17367,6.1
17369,23.8
17372,-2.1
17373,9.1
17379,21.5
17381,36.4
17383,17.5
17384,-17.5
17386,28.4
17388,34.5
17390,9.1
17391,20.5
17392,28.3
17395,9.6
17397,26.2
17398,6.8
17399,33.1
17401,15.8
17402,14.6
17406,33.2
17407,29.9
17409,31.7
17410,5.6
17412,11.2
17414,12.1
17416,4.6
17417,20.4
17418,15.2
17420,14.6
17421,-2.1
17422,8.6
17423,34.2
17426,16.7
17429,17.8
17433,11.2
17434,41.6
17437,24.0
17439,17.1
17440,25.2
17441,12.8
17442,28.7
17443,4.1
17446,18.5
17447,22.5
17448,29.6
17451,4.7
17453,19.9
17456,15.3
17458,26.0
17459,15.9
17462,33.5
17467,27.0
17468,35.0
17471,3.0
17476,24.0
17477,6.1
17478,19.9
17482,-12.4
17483,16.2
17485,9.1
17486,26.4
17489,13.2
17490,7.2
17494,14.1
17495,29.8
17496,33.9
17498,15.2
17502,26.2
17503,18.2
17505,13.1
17506,21.9
17509,13.3
17510,21.2
17513,26.2
17515,12.1
17521,-2.1
17522,29.8
17523,15.1
17524,22.8
17525,13.0
17528,18.7
17529,15.6
17533,44.2
17534,29.7
17536,23.2
17538,5.2
17542,4.6
17543,14.8
17544,27.9
17546,18.5
17547,12.7
17552,30.2
17557,10.9
17558,13.3
17559,31.6
17560,11.3
17561,29.3
17565,21.7
17566,25.7
17568,7.4
17569,32.4
17570,30.4
17571,8.2
17572,9.8
17574,8.6
17575,4.1
17579,23.2
17582,29.3
17583,-12.4
17586,32.3
17588,5.8
17590,17.4
17595,35.3
17596,31.3
17597,12.0
17599,32.5
17600,15.4
17602,15.9
17604,19.3
17605,8.1
17606,5.7
17608,10.8
17611,5.6
17614,8.1
17620,-4.7
17621,15.0
17622,12.3
17623,19.0
17624,11.5
17625,13.5
17628,35.7
17629,11.9
17630,6.4
17631,33.5
17634,41.6
17635,12.7
17636,21.7
17642,8.4
17643,15.6
17644,16.1
17645,35.7
17646,18.5
17648,15.1
17651,12.4
17653,11.4
17657,12.9
17658,13.3
17659,35.9
17662,24.9
17663,14.2
17664,17.0
17665,14.9
17666,25.4
17667,19.4
17671,8.2
17673,24.4
17675,14.4
17678,11.8
17682,-15.0
17683,8.8
17685,16.1
17686,16.3
17687,22.2
17692,31.5
17694,26.2
17696,31.3
17697,23.2
17702,35.9
17706,15.4
17709,10.8
17710,28.6
17714,13.9
17717,20.1
17719,34.6
17721,-4.7
17722,7.2
17724,17.5
17726,5.5
17731,30.0
17732,34.0
17733,41.6
17734,29.5
17735,12.7
17736,25.1
17739,29.6
17741,17.5
17743,11.9
17745,21.0
17747,28.5
17750,25.6
17751,35.8
17754,14.0
17757,4.1
17758,13.3
17760,4.6
17761,7.4
17763,17.2
17764,23.6
17765,36.2
17766,24.9
17771,13.3
17775,7.2
17777,28.1
17780,20.3
17781,23.5
17782,27.8
17783,-22.7
17786,30.6
17787,26.9
17791,36.1
17796,8.1
17797,23.6
17798,15.5
17801,14.5
17804,15.2
17806,5.4
17807,27.5
17808,20.5
17809,3.0
17810,13.4
17811,27.6
17812,17.3
17813,8.0
17815,4.8
17816,24.1
17817,16.8
17820,-4.7
17823,4.6
17829,19.2
17831,24.3
17832,5.0
17833,41.6
17834,31.9
17836,29.0
17837,18.5
17838,5.2
17839,16.6
17841,22.9
17842,25.3
17843,23.0
17844,20.1
17845,18.3
17846,18.5
17847,23.7
17848,35.2
17849,14.3
17850,26.4
17851,17.1
17857,27.2
17858,15.9
17859,7.6
17860,30.3
17861,23.1
17862,29.8
17864,25.9
17865,29.4
17866,34.5
17867,18.0
17870,15.9
17871,17.3
17872,12.2
17874,36.9
17875,30.1
17878,20.1
17883,-22.7
17885,11.9
17892,33.0
17897,23.6
17898,30.3
17899,27.2
17902,23.6
17903,5.5
17907,5.9
17909,3.0
17912,8.2
17913,21.6
17914,11.1
17917,29.7
17918,35.9
17919,11.6
17921,-4.7
17922,15.4
17924,7.5
17925,10.4
17928,4.2
17929,13.0
17930,5.6
17931,19.4
17932,32.3
17933,41.6
17934,9.4
17935,25.0
17936,36.2
17937,11.5
17938,17.4
17941,26.2
17942,11.4
17944,19.8
17945,18.5
17946,29.5
17950,22.7
17951,18.6
17953,31.1
17955,6.1
17957,13.3
17958,26.9
17962,21.2
17963,4.7
17964,27.2
17969,32.2
17971,18.5
17972,33.4
17974,4.4
17975,5.7
17978,19.1
17980,27.8
17981,30.6
17982,29.5
17983,-22.7
17985,18.4
17990,16.0
17992,30.9
17996,23.6
17999,16.9
18003,4.8
18004,9.7
18009,3.0
18014,32.0
18015,10.0
18018,36.7
18020,-7.2
18021,17.7
18022,33.6
18023,19.5
18024,23.5
18025,12.7
18026,29.7
18030,6.3
18032,33.2
18033,41.6
18034,32.5
18035,21.3
18036,18.2
18037,23.2
18045,21.0
18047,6.9
18048,8.2
18049,8.2
18052,10.5
18054,30.5
18056,6.5
18058,10.8
18060,24.7
18064,9.5
18067,32.6
18070,21.0
18071,30.6
18072,6.7
18073,7.6
18074,20.1
18077,25.2
18078,22.7
18079,36.3
18081,31.8
18082,-20.1
18083,30.7
18085,32.5
18086,17.0
18089,29.0
18090,14.5
18093,35.8
18096,24.8
18097,21.0
18100,13.0
18101,34.2
18105,27.1
18106,10.0
18107,26.7
18109,0.5
18112,14.5
18113,13.5
18115,6.5
18116,21.2
18118,30.3
18120,-7.2
18123,26.7
18126,26.0
18128,29.2
18130,27.0
18132,41.6
18133,6.8
18136,16.6
18137,18.9
18140,20.9
18141,4.6
18143,15.2
18144,5.9
18145,21.0
18148,22.2
18150,25.4
18152,21.8
18153,26.8
18156,11.1
18157,10.8
18163,31.6
18164,27.8
18166,20.9
18170,21.0
18172,29.8
18173,21.7
18176,33.6
18179,32.4
18180,35.0
18183,-17.5
18186,12.6
18187,26.1
18189,9.5
18194,35.2
18195,12.6
18196,21.0
18202,21.2
18203,10.5
18204,14.7
18205,36.2
18208,-2.1
18213,33.7
18218,7.7
18221,-15.0
18222,18.6
18226,21.9
18227,34.1
18230,4.4
18232,4.1
18235,31.3
18236,19.9
18239,29.7
18240,34.4
18241,19.5
18242,19.9
18245,28.2
18247,8.2
18248,4.3
18250,17.9
18253,25.9
18255,18.4
18256,36.1
18257,11.8
18258,3.0
18259,19.3
18270,26.2
18272,8.8
18274,23.9
18278,4.1
18281,17.9
18282,-12.4
18284,19.9
18286,31.7
18287,25.0
18289,10.1
18291,7.1
18292,8.9
18296,18.5
18300,13.3
18302,21.3
18303,21.0
18306,22.5
18308,25.7
18309,0.5
18310,7.4
18312,16.9
18315,23.0
18316,5.5
18317,33.2
18320,-9.8
18324,26.2
18328,16.8
18329,13.8
18330,14.8
18331,17.2
18332,41.6
18340,24.3
18341,19.4
18343,7.6
18344,18.5
18347,24.2
18348,17.2
18355,14.7
18357,8.2
18358,33.9
18359,28.8
18361,24.1
18362,4.7
18364,29.9
18365,12.3
18367,30.3
18369,-4.7
18379,5.1
18380,22.6
18381,-17.5
18383,27.4
18393,20.1
18394,4.5
18395,26.2
18396,13.8
18398,15.1
18404,25.8
18406,7.8
18407,8.2
18410,35.7
18416,18.9
18417,5.8
18418,-2.1
18423,22.2
18424,28.3
18430,16.3
18431,22.9
18432,41.6
18440,10.2
18444,15.9
18447,36.8
18449,8.7
18453,16.9
18454,35.5
18455,19.3
18456,15.9
18458,9.8
18459,35.7
18465,34.4
18468,-2.1
18478,6.2
18479,12.2
18481,-17.5
18483,33.7
18484,28.0
18485,29.8
18489,15.3
18491,9.7
18492,30.3
18493,8.6
18494,26.2
18497,7.7
18499,22.9
18500,34.7
18501,4.8
18505,27.4
18507,5.6
18509,19.0
18511,30.2
18512,21.0
18518,8.7
18519,-2.1
18521,31.8
18522,23.9
18524,10.6
18525,36.8
18530,22.0
18531,41.6
18533,28.9
18534,31.3
18543,15.9
18544,10.3
18551,31.7
18552,25.1
18554,4.1
18555,15.9
18558,15.9
18564,11.9
18566,30.5
18569,0.5
18576,32.1
18578,19.8
18580,-12.4
18581,15.2
18583,12.4
18590,22.9
18592,29.5
18593,31.3
18595,27.3
18597,8.0
18599,32.9
18601,28.2
18602,14.0
18606,13.3
18607,33.9
18609,29.3
18612,9.0
18615,21.9
18617,10.3
18618,-2.1
18621,22.9
18622,16.1
18623,35.4
18624,23.2
18625,19.9
18626,23.1
18630,34.7
18631,44.2
18632,15.2
18634,29.0
18638,23.9
18641,7.3
18643,18.5
18647,34.7
18648,6.7
18650,20.0
18654,4.9
18656,15.9
18659,5.1
18660,17.6
18664,18.9
18667,5.9
18668,3.0
18669,22.9
18672,6.4
18675,12.4
18676,34.8
18677,16.6
18679,-15.0
18680,14.9
18682,35.8
18684,12.4
18688,30.7
18691,29.1
18693,31.3
18696,24.8
18698,23.5
18699,10.9
18700,18.8
18701,22.4
18702,7.8
18703,22.4
18705,29.2
18706,10.8
18708,17.3
18711,19.3
18716,26.0
18717,32.3
18718,-2.1
18719,4.3
18721,13.2
18722,14.2
18723,35.1
18726,25.6
18728,27.6
18729,23.4
18731,41.6
18733,27.6
18734,26.3
18735,26.1
18737,11.7
18739,6.6
18740,29.2
18742,29.1
18743,18.5
18745,5.5
18754,11.5
18755,15.9
18759,12.7
18761,30.1
18762,28.7
18763,27.8
18765,18.9
18766,34.1
18768,8.2
18770,36.5
18774,33.6
18775,12.7
18776,32.7
18777,7.8
18780,-12.4
18783,4.0
18787,21.9
18790,33.6
18793,31.3
18800,32.3
18802,23.4
18803,27.1
18805,10.8
18806,36.4
18809,27.9
18815,11.2
18818,-4.7
18819,7.9
18822,7.1
18823,15.4
18824,4.6
18826,15.2
18828,13.6
18829,20.0
18831,41.6
18835,19.0
18838,29.7
18839,23.3
18841,35.0
18843,18.5
18844,31.0
18846,27.7
18847,13.9
18848,19.8
18849,31.5
18851,7.5
18852,5.7
18855,13.3
18856,35.5
18857,23.0
18858,16.9
18860,33.1
18861,15.9
18862,26.2
18865,15.6
18866,15.3
18867,8.9
18868,10.8
18870,22.7
18874,19.0
18877,9.5
18878,26.5
18880,-20.1
18881,10.9
18883,20.7
18884,12.9
18886,36.6
18888,4.8
18889,10.7
18890,4.3
18891,20.7
18893,23.6
18899,35.6
18900,16.5
18901,32.3
18907,5.6
18911,28.5
18913,4.4
18915,18.3
18917,27.9
18918,-4.7
18920,28.1
18921,10.0
18925,32.6
18926,25.4
18930,41.6
18932,32.5
18936,6.2
18940,21.1
18941,34.7
18942,18.5
18943,29.8
18947,19.7
18950,24.6
18952,32.5
18953,33.1
18955,13.3
18957,33.4
18958,18.5
18959,16.4
18960,5.3
18961,25.6
18965,22.8
18966,33.5
18968,13.3
18969,17.4
18970,16.4
18972,20.4
18975,23.4
18978,33.0
18979,30.7
18980,-22.7
18981,34.5
18982,6.3
18983,29.9
18985,5.8
18986,18.4
18991,11.9
18994,23.6
18996,15.8
18998,8.3
19003,23.7
19004,9.7
19005,25.8
19006,3.0
19008,5.1
19009,21.8
19015,33.7
19016,34.2
19017,-4.7
19019,13.5
19023,9.4
19024,10.4
19026,35.1
19030,12.0
19031,41.6
19033,30.0
19034,11.1
19036,23.4
19037,11.6
19040,13.2
19041,4.7
19043,21.0
19045,17.2
19048,27.4
19049,4.9
19050,32.0
19053,35.3
19055,13.3
19058,22.7
19059,36.2
19060,27.4
19061,26.4
19062,4.1
19063,24.2
19067,15.9
19068,25.6
19070,10.3
19072,18.4
19074,33.0
19075,14.7
19076,8.6
19078,14.1
19080,-22.7
19081,8.5
19085,15.3
19087,19.9
19088,31.5
19089,5.1
19093,21.0
19094,16.6
19095,35.0
19103,12.4
19106,0.5
19107,33.2
19111,22.3
19113,13.5
19117,19.8
19118,-7.2
19120,35.3
19121,12.1
19123,7.8
19126,23.1
19127,28.9
19129,30.4
19130,41.6
19131,29.8
19133,12.4
19134,15.9
19137,35.8
19138,33.8
19139,21.5
19141,4.2
19142,18.5
19145,12.2
19146,18.7
19150,29.1
19151,14.0
19152,8.4
19154,10.8
19155,15.0
19156,5.0
19159,22.4
19162,36.0
19163,18.0
19166,21.5
19168,21.0
19170,35.7
19171,22.0
19172,4.9
19173,10.0
19174,11.5
19178,23.5
19179,8.3
19180,-20.1
19181,8.0
19182,33.3
19185,34.3
19188,5.1
19190,33.7
19193,21.0
19194,24.5
19195,27.7
19199,14.8
19201,17.2
19203,17.7
19204,10.9
19206,0.5
19207,23.5
19210,23.0
19212,8.3
19213,30.8
19215,22.7
19217,-7.2
19221,29.6
19228,9.3
19230,41.6
19233,33.2
19237,20.4
19238,31.3
19239,27.1
19240,12.3
19241,9.2
19242,14.2
19243,18.5
19246,16.0
19247,17.5
19250,23.0
19252,7.7
19253,34.2
19254,23.1
19255,10.8
19256,14.2
19258,7.8
19259,4.3
19262,10.4
19263,10.0
19265,22.4
19267,21.0
19269,4.2
19271,4.1
19272,14.7
19274,27.2
19276,9.9
19279,-17.5
19280,20.1
19283,15.2
19285,6.6
19290,35.0
19292,8.9
19293,21.0
19295,9.3
19298,27.2
19300,28.8
19301,6.7
19302,33.3
19306,0.5
19307,15.9
19310,16.1
19312,13.0
19314,17.1
19316,21.5
19317,-7.2
19318,24.4
19319,25.7
19323,27.0
19325,5.8
19328,33.3
19330,41.6
19333,17.4
19335,8.3
19338,19.4
19340,25.5
19342,21.0
19344,4.6
19345,7.2
19349,9.6
19350,26.5
19353,22.8
19354,10.8
19355,12.3
19356,9.6
19357,5.7
19359,32.6
19360,17.1
19364,19.9
19365,34.0
19366,15.3
19367,23.6
19369,28.3
19370,34.8
19373,30.6
19380,-15.0
19381,10.7
19382,22.9
19384,16.3
19389,35.4
19391,8.7
19393,18.5
19396,11.9
19397,22.3
19403,17.1
19405,0.5
19408,27.3
19413,4.3
19417,-9.8
19418,5.6
19422,6.9
19424,12.6
19425,18.7
19427,23.6
19430,41.6
19433,11.6
19435,17.2
19437,6.5
19438,28.5
19439,21.5
19440,20.5
19442,18.5
19449,7.3
19450,24.9
19451,4.2
19453,16.0
19454,10.8
19458,27.8
19459,22.7
19464,20.4
19465,36.4
19466,36.2
19467,26.2
19469,26.1
19475,4.9
19479,-12.4
19480,8.3
19483,6.4
19489,8.3
19490,7.9
19492,21.0
19493,22.6
19496,22.1
19498,27.8
19499,8.2
19500,11.5
19501,8.9
19506,-2.1
19510,22.6
19512,31.8
19516,31.4
19518,-15.0
19519,23.0
19520,32.1
19526,28.9
19527,23.3
19529,20.7
19531,28.8
19532,23.6
19535,7.4
19540,21.7
19544,10.8
19545,35.0
19547,34.0
19549,34.2
19550,30.7
19551,6.6
19553,31.8
19554,30.5
19556,-7.2
19557,25.3
19559,6.7
19560,23.9
19562,36.1
19569,41.6
19570,33.8
19572,19.4
19574,31.4
19575,19.2
19576,27.0
19581,18.5
19584,7.7
19586,30.1
19588,14.2
19589,10.1
19590,22.5
19591,19.4
19593,11.9
19594,10.8
19596,17.6
19597,16.7
19600,15.4
19604,6.6
19605,34.5
19606,18.5
19607,11.8
19609,6.3
19611,13.9
19613,23.0
19614,36.2
19616,30.1
19618,-20.1
19619,19.5
19620,18.8
19622,29.1
19625,25.3
19627,27.4
19628,19.2
19629,9.7
19630,28.8
19633,21.0
19634,13.8
19635,25.0
19637,10.5
19638,33.2
19639,32.4
19642,24.5
19643,19.3
19645,0.5
19647,20.3
19648,23.9
19649,32.6
19655,15.9
19656,-7.2
19658,7.6
19660,33.8
19662,28.8
19664,32.1
19667,11.4
19668,41.6
19669,21.1
19673,26.3
19675,5.4
19677,9.2
19678,34.2
19679,5.5
19680,30.6
19681,18.5
19684,12.9
19685,21.6
19686,4.6
19688,13.8
19693,13.7
19694,10.8
19695,23.2
19696,17.8
19697,5.7
19698,5.0
19700,5.6
19701,13.5
19705,23.8
19706,21.0
19709,17.8
19710,15.7
19713,11.5
19714,17.7
19715,13.5
19717,9.5
19718,16.6
19719,-17.5
19721,29.7
19722,26.9
19724,8.6
19725,16.1
19727,23.6
19729,34.5
19731,11.3
19732,21.0
19735,29.8
19737,11.6
19738,23.6
19739,6.8
19742,35.6
19743,34.5
19744,0.5
19745,24.8
19746,5.9
19747,7.3
19748,15.0
19749,19.4
19750,7.6
19753,27.5
19755,28.8
19756,-7.2
19757,10.1
19759,10.0
19760,14.3
19762,6.2
19769,41.6
19771,20.2
19775,32.6
19778,17.9
19779,36.0
19781,21.0
19783,4.4
19784,4.4
19785,6.2
19790,12.8
19793,10.8
19794,34.3
19795,30.3
19796,11.2
19798,14.9
19800,21.4
19802,28.3
19803,18.8
19805,14.1
19806,23.6
19807,9.2
19810,21.8
19813,12.0
19815,30.2
19816,29.1
19817,29.1
19818,-15.0
19820,24.3
19822,26.6
19823,34.1
19824,19.9
19826,19.7
19828,34.8
19832,21.0
19833,36.4
19834,12.2
19836,23.6
19837,30.1
19841,9.5
19845,0.5
19846,29.4
19848,9.4
19849,13.9
19850,28.0
19852,11.8
19856,-7.2
19857,14.7
19864,5.4
19865,10.7
19868,41.6
19869,24.0
19871,4.5
19872,5.3
19874,36.1
19876,5.8
19878,13.9
19879,19.0
19880,18.5
19881,6.2
19882,31.7
19884,14.3
19886,8.8
19887,20.6
19892,12.2
19894,8.2
19905,-2.1
19907,28.3
19908,14.7
19911,12.6
19913,35.0
19914,27.6
19917,-20.1
19919,13.4
19920,25.2
19921,8.1
19922,24.4
19925,23.8
19927,27.9
19928,28.7
19930,28.2
19931,26.2
19934,18.6
19935,16.0
19936,32.5
19938,35.2
19939,11.4
19941,10.5
19943,5.6
19944,35.5
19946,26.6
19947,17.2
19948,4.6
19951,14.5
19952,11.0
19954,-2.1
19955,29.7
19957,23.5
19960,10.0
19962,36.7
19964,15.4
19965,20.9
19966,22.4
19967,11.3
19968,41.6
19969,19.1
19970,12.2
19971,30.3
19972,20.9
19973,33.4
19975,12.1
19979,34.8
19980,15.9
19986,11.7
19990,15.2
19992,15.9
19993,24.8
19994,31.7
19995,10.9
19996,10.0
19998,11.6
19999,14.2
20001,31.9
20003,9.0
20004,-4.7
20008,29.0
20009,34.8
20010,4.7
20011,22.8
20013,16.4
20014,27.6
20017,-17.5
20019,19.1
20021,5.8
20023,11.6
20025,5.5
20031,26.2
20032,34.2
20033,17.2
20034,8.1
20035,31.1
20039,14.8
20040,31.0
20043,5.6
20044,20.1
20045,7.0
20046,35.3
20048,14.7
20050,32.4
20052,5.8
20054,23.4
20055,-2.1
20057,35.9
20058,24.9
20060,27.0
20062,13.0
20067,41.6
20071,9.0
20072,25.4
20077,26.7
20079,18.5
20081,13.9
20083,15.2
20084,14.1
20086,6.6
20087,24.5
20090,16.3
20091,15.9
20092,16.3
20094,6.9
20096,14.6
20097,20.9
20098,30.8
20099,35.1
20102,29.4
20105,-2.1
20106,6.5
20110,7.0
20111,12.2
20112,36.2
20115,36.1
20116,15.4
20117,-20.1
20118,4.7
20120,27.6
20121,11.4
20122,26.7
20126,24.2
20130,26.2
20131,12.4
20132,29.1
20133,6.3
20139,27.5
20141,19.5
20143,5.6
20144,15.0
20150,20.4
20153,29.0
20154,-4.7
20160,15.8
20164,35.3
20166,33.5
20167,44.2
20169,16.9
20172,30.3
20173,9.7
20176,21.0
20179,18.5
20180,25.4
20181,36.4
20184,17.5
20188,4.6
20189,29.9
20192,15.9
20195,8.0
20198,17.5
20199,31.9
20200,6.5
20201,26.1
20203,21.7
20204,3.0
20205,16.0
20208,35.3
20214,18.3
20215,-12.4
20219,14.4
20223,4.3
20226,29.7
20228,19.1
20229,35.0
20230,31.3
20231,14.3
20234,13.5
20236,5.8
20237,24.0
20241,25.8
20242,13.3
20244,20.5
20248,15.8
20249,25.5
20252,23.7
20254,-2.1
20255,19.2
20258,6.6
20261,10.3
20263,11.1
20265,35.8
20266,4.8
20267,41.6
20270,34.8
20272,5.4
20273,29.3
20274,5.3
20275,5.5
20278,34.2
20279,18.5
20280,29.3
20281,17.8
20283,7.2
20284,5.7
20286,11.1
20287,8.9
20289,31.4
20290,21.3
20291,15.9
20293,22.4
20295,21.8
20296,10.8
20300,13.3
20302,36.1
20303,16.9
20304,5.6
20306,7.8
20307,35.0
20308,22.3
20311,7.8
20314,35.9
20316,-15.0
20317,19.6
20318,21.7
20319,15.6
20321,21.4
20325,26.6
20326,34.8
20328,34.7
20329,31.3
20330,5.5
20331,15.6
20333,5.2
20336,23.5
20338,15.0
20339,17.2
20340,22.4
20341,10.8
20342,29.0
20343,16.5
20345,9.8
20349,5.1
20351,19.8
20352,9.2
20354,-4.7
20359,20.1
20361,31.2
20364,27.9
20365,36.5
20367,41.6
20368,7.7
20370,26.1
20371,32.5
20374,18.8
20377,24.9
20379,18.5
20382,19.1
20384,15.6
20385,13.3
20387,19.4
20388,11.4
20389,27.9
20391,13.3
20392,29.8
20393,35.7
20396,11.3
20398,29.4
20401,23.9
20403,35.4
20404,10.8
20405,21.2
20406,23.7
20407,24.8
20408,22.8
20412,7.4
20413,12.4
20414,36.2
20415,24.0
20416,-22.7
20422,10.7
20423,19.2
20424,6.6
20426,16.8
20427,12.7
20429,5.2
20430,23.6
20431,18.3
20432,21.4
20433,27.9
20434,18.8
20438,6.3
20439,22.5
20440,29.2
20443,3.0
20444,33.5
20446,6.8
20447,14.0
20451,18.2
20453,15.6
20454,-2.1
20456,24.1
20458,16.1
20461,17.3
20462,36.9
20464,12.2
20466,41.6
20470,28.8
20471,20.6
20475,34.2
20478,18.5
20481,25.6
20482,10.9
20483,34.8
20485,4.5
20488,5.1
20489,15.5
20491,10.8
20494,31.6
20495,15.4
20500,14.9
20504,13.3
20507,30.1
20508,11.9
20514,19.5
20516,-22.7
20520,19.7
20524,30.2
20525,4.6
20530,23.6
20531,10.6
20532,16.5
20533,26.7
20534,19.9
20535,23.5
20537,9.3
20540,17.7
20542,0.5
20543,16.2
20544,22.1
20545,26.2
20547,4.4
20549,7.4
20550,12.7
20551,5.9
20553,-4.7
20554,35.5
20555,35.5
20558,13.6
20559,14.6
20560,25.7
20561,36.9
20562,13.8
20563,36.8
20565,20.7
20567,41.6
20568,28.6
20572,5.2
20574,22.6
20576,34.3
20577,31.8
20579,21.0
20584,22.7
20585,20.4
20586,24.8
20588,11.8
20590,20.8
20591,10.8
20592,8.5
20593,16.5
20597,16.9
20598,4.4
20601,30.3
20603,15.9
20604,29.5
20611,12.2
20615,11.3
20616,-22.7
20617,26.2
20619,4.9
20620,23.1
20623,13.6
20627,14.3
20628,24.3
20630,23.6
20631,24.4
20632,11.5
20633,4.6
20636,26.8
20639,27.6
20640,7.5
20641,36.7
20642,0.5
20644,22.7
20645,25.2
20647,14.4
20650,13.0
20652,28.9
20654,-7.2
20658,9.0
20660,24.4
20661,26.9
20662,15.9
20666,41.6
20667,21.2
20669,30.3
20670,9.2
20672,15.1
20673,18.9
20675,14.8
20676,17.3
20678,21.0
20685,4.1
20686,8.2
20687,5.2
20688,11.4
20689,35.5
20690,13.3
20691,5.3
20692,16.6
20697,19.4
20698,32.2
20699,36.2
20700,7.4
20702,15.9
20704,21.0
20710,25.8
20712,21.1
20714,28.3
20716,-22.7
20719,31.3
20721,7.4
20722,21.0
20724,24.8
20725,29.5
20727,20.7
20728,34.0
20729,21.0
20732,15.1
20733,17.6
20734,18.2
20736,27.4
20737,30.4
20738,32.0
20739,11.2
20741,8.2
20742,3.0
20746,21.4
20747,13.7
20748,13.1
20750,25.0
20753,-4.7
20756,5.1
20759,22.4
20760,30.4
20761,17.7
20763,14.8
20765,19.6
20766,41.6
20767,24.2
20769,31.4
20770,30.7
20773,32.2
20774,13.3
20775,14.0
20777,4.5
20778,9.3
20779,18.5
20782,36.2
20787,26.9
20789,8.9
20791,10.8
20794,21.7
20798,31.6
20799,10.3
20800,6.3
20803,23.6
20806,32.7
20811,11.7
20813,6.5
20815,-20.1
20817,16.1
20818,11.5
20820,6.4
20822,31.6
20825,7.6
20826,21.6
20827,26.9
20828,16.5
20830,21.0
20832,16.6
20833,23.4
20835,8.0
20839,12.7
20840,8.0
20841,29.2
20842,0.5
20843,26.1
20844,17.5
20845,16.6
20846,4.8
20847,19.0
20851,29.8
20852,7.1
20853,-7.2
20855,20.5
20856,31.5
20858,8.1
20860,7.4
20861,23.1
20862,30.4
20863,8.1
20866,41.6
20869,14.4
20872,35.3
20873,35.6
20874,26.3
20875,8.7
20876,14.0
20878,18.5
20879,20.0
20880,22.5
20882,26.1
20883,11.0
20886,6.1
20887,5.5
20888,12.6
20889,13.3
20890,10.8
20892,10.5
20893,6.3
20898,7.4
20900,35.1
20903,23.6
20904,37.0
20905,22.6
20910,7.4
20913,4.3
20914,36.4
20916,-17.5
20917,34.4
20918,27.0
20920,11.6
20926,14.4
20929,21.0
20934,7.8
20936,32.8
20937,26.1
20941,0.5
20945,14.2
20946,18.9
20947,20.6
20950,17.7
20951,22.9
20952,13.1
20953,-7.2
20957,5.6
20959,37.0
20961,16.8
20962,7.3
20966,41.6
20971,25.8
20973,20.6
20975,21.4
20976,6.3
20977,10.5
20978,18.5
20985,12.7
20987,30.6
20988,29.2
20990,10.8
20993,16.9
20996,14.4
20997,8.1
21001,29.2
21002,19.1
21003,26.2
21004,25.8
21005,19.6
21008,12.9
21010,5.8
21011,27.9
21015,-12.4
21016,4.9
21021,11.1
21023,36.8
21025,18.8
21026,12.5
21027,24.7
21028,24.2
21029,21.0
21031,36.0
21032,18.8
21033,23.9
21034,11.6
21037,24.1
21038,27.4
21039,17.0
21042,0.5
21043,36.0
21045,24.3
21053,-7.2
21054,6.9
21055,30.9
21057,17.3
21058,13.9
21060,4.1
21061,16.7
21063,11.4
21065,41.6
21067,18.1
21069,30.7
21070,15.6
21071,35.0
21073,27.2
21074,22.4
21077,15.5
21078,21.0
21081,34.5
21082,17.1
21083,6.9
21084,31.6
21086,6.7
21087,36.9
21088,23.9
21089,25.3
21091,8.2
21093,13.7
21099,30.0
21100,9.5
21102,-2.1
21107,11.5
21109,5.2
21110,34.7
21114,-17.5
21115,4.7
21120,13.3
21121,13.6
21122,21.2
21126,19.3
21128,26.2
21130,13.9
21133,22.5
21134,29.6
21135,25.0
21136,30.9
21137,23.5
21139,20.8
21140,5.6
21142,21.1
21143,19.4
21144,33.6
21145,12.1
21149,30.7
21151,-2.1
21152,4.8
21153,5.8
21155,33.4
21158,30.3
21162,4.1
21165,39.1
21167,6.4
21168,20.0
21171,35.5
21172,32.4
21174,25.6
21175,14.3
21177,18.5
21180,33.9
21181,23.7
21184,30.7
21185,30.9
21187,34.8
21188,18.7
21189,15.9
21190,7.4
21192,34.7
21193,6.4
21197,7.5
21198,27.2
21200,18.0
21201,0.5
21204,5.7
21213,-12.4
21215,5.2
21220,24.3
21223,9.6
21227,31.3
21228,7.1
21230,13.5
21231,6.8
21238,36.1
21239,13.3
21242,15.8
21244,32.0
21248,18.0
21251,13.2
21252,-2.1
21255,11.7
21256,26.0
21259,21.1
21263,25.9
21264,41.6
21265,28.1
21266,36.5
21268,34.5
21269,16.3
21271,9.3
21276,18.5
21277,22.7
21279,7.6
21286,29.6
21288,15.9
21289,4.9
21298,11.0
21302,3.0
21307,11.7
21308,12.0
21309,4.0
21312,34.9
21313,-12.4
21314,5.8
21315,24.4
21316,30.3
21317,23.3
21318,16.7
21322,17.3
21325,15.5
21326,31.3
21328,27.7
21329,27.7
21330,35.6
21332,24.2
21334,25.4
21339,13.3
21347,19.1
21349,7.4
21351,-2.1
21353,19.0
21354,35.7
21357,32.7
21359,29.2
21364,41.6
21365,26.9
21368,9.1
21369,20.7
21371,27.7
21377,15.9
21379,9.0
21380,34.3
21381,30.2
21383,30.8
21386,31.1
21388,31.9
21389,13.3
21391,16.4
21394,14.9
21395,25.8
21396,31.6
21398,9.1
21401,5.6
21402,19.8
21406,30.8
21409,22.3
21411,25.9
21412,-12.4
21414,12.6
21415,6.6
21416,34.5
21417,12.0
21420,23.0
21427,31.3
21432,30.1
21433,33.5
21434,19.9
21435,24.1
21437,18.5
21438,5.1
21439,13.3
21441,4.2
21443,16.0
21444,25.2
21446,19.8
21447,11.6
21450,14.5
21451,-4.7
21454,24.0
21455,7.9
21459,27.7
21460,16.8
21462,15.2
21463,17.0
21464,41.6
21466,30.8
21467,22.4
21469,10.2
21470,32.9
21471,28.8
21472,17.0
21476,18.5
21477,17.2
21479,31.0
21480,21.7
21483,23.7
21485,4.5
21487,35.0
21488,15.9
21490,25.9
21491,24.7
21492,14.8
21494,20.0
21495,31.9
21496,11.6
21497,27.7
21500,12.3
21501,8.2
21502,8.4
21505,27.0
21509,36.4
21510,27.9
21511,36.5
21512,17.1
21513,-12.4
21514,28.7
21515,35.8
21517,15.9
21518,8.2
21519,31.5
21520,25.4
21521,14.9
21522,24.5
21523,9.7
21525,36.5
21526,31.3
21527,4.2
21529,26.0
21531,29.9
21532,30.3
21533,7.7
21538,10.8
21539,29.4
21541,5.8
21543,31.0
21547,18.0
21550,17.7
21551,-4.7
21561,31.9
21562,19.2
21564,41.6
21566,22.5
21567,30.0
21569,35.9
21573,28.7
21574,24.7
21576,18.5
21577,6.7
21578,35.3
21579,32.2
21580,4.0
21583,26.2
21584,22.3
21588,13.3
21589,8.6
21591,29.2
21594,21.5
21595,14.0
21598,36.1
21601,13.3
21602,31.5
21603,24.6
21607,29.2
21609,26.7
21610,33.4
21613,-22.7
21614,27.4
21615,22.5
21618,17.4
21621,8.2
21623,26.2
21627,26.2
21629,11.2
21631,6.0
21635,26.0
21636,21.5
21638,20.3
21639,33.3
21640,3.0
21642,36.3
21644,35.3
21646,12.1
21647,36.7
21648,32.3
21650,35.0
21651,-4.7
21654,36.0
21656,27.9
21658,6.3
21659,8.6
21660,36.6
21661,29.5
21662,21.5
21663,44.2
21664,8.5
21668,8.6
21676,18.5
21677,17.6
21679,28.8
21680,21.4
21685,36.5
21686,31.1
21688,13.3
21690,8.0
21691,16.7
21692,25.1
21694,24.7
21696,27.7
21697,31.3
21698,9.1
21699,17.6
21701,15.9
21702,29.2
21705,26.8
21706,18.4
21707,11.9
21708,20.7
21713,-20.1
21715,14.5
21716,24.6
21719,23.5
21724,17.7
21725,19.3
21727,23.6
21728,13.0
21729,31.6
21730,8.9
21735,29.8
21736,26.0
21737,27.5
21739,3.0
21741,28.2
21743,25.7
21746,36.3
21748,8.6
21750,-4.7
21752,33.7
21755,8.9
21757,33.3
21758,30.6
21762,30.6
21763,34.1
21764,41.6
21767,9.8
21771,33.3
21773,11.9
21775,23.2
21776,18.5
21777,24.0
21779,24.6
21780,14.6
21782,32.4
21783,34.9
21785,14.3
21786,33.9
21787,17.7
21788,13.3
21789,12.5
21791,13.9
21792,21.2
21798,29.1
21800,18.5
21803,12.2
21806,34.4
21808,24.8
21813,-20.1
21821,29.3
21822,28.1
21825,18.4
21826,7.7
21827,21.0
21828,36.1
21829,7.8
21830,14.2
21831,36.0
21832,11.3
21833,18.1
21835,4.8
21836,27.3
21838,4.8
21839,0.5
21841,22.5
21842,19.8
21844,31.8
21847,14.5
21848,15.5
21849,26.3
21851,-7.2
21853,29.8
21854,5.8
21859,25.1
21862,16.8
21863,44.2
21865,33.3
21866,29.7
21867,21.5
21872,34.7
21875,18.5
21877,5.7
21881,34.4
21886,23.0
21887,26.7
21888,10.8
21890,4.5
21893,28.1
21894,35.5
21895,35.5
21900,19.4
21901,21.0
21902,7.8
21907,9.9
21910,27.9
21912,17.1
21913,-22.7
21914,27.9
21915,11.1
21916,10.3
21918,20.8
21924,6.4
21926,23.6
21928,30.3
21930,9.8
21933,14.5
21939,0.5
21940,25.7
21942,23.5
21944,35.4
21945,19.5
21949,11.5
21950,-7.2
21954,19.0
21957,34.3
21959,22.9
21960,23.9
21963,41.6
21965,15.8
21969,20.1
21970,23.1
21971,29.2
21972,6.2
21975,35.7
21976,18.5
21982,30.9
21983,12.4
21985,18.9
21988,10.8
21989,26.5
21991,6.4
21992,19.8
21994,11.1
21998,16.9
21999,34.4
22000,23.6
22003,4.4
22005,27.4
22007,18.0
22010,35.7
22012,-17.5
22020,17.0
22023,25.5
22024,32.5
22026,7.4
22027,23.6
22032,9.3
22033,35.3
22034,13.6
22036,32.1
22037,10.8
22039,-2.1
22040,5.0
22044,4.5
22045,5.4
22048,17.1
22051,-12.4
22052,12.2
22054,28.5
22058,20.8
22065,31.3
22066,8.8
22068,35.8
22069,24.7
22070,36.8
22072,22.4
22073,20.9
22074,11.4
22076,34.0
22077,13.3
22078,32.5
22080,30.4
22084,5.3
22086,19.6
22087,27.6
22088,21.3
22089,6.7
22090,-2.1
22091,25.0
22093,11.6
22095,18.1
22097,15.7
22101,34.3
22102,22.0
22103,44.2
22104,8.9
22105,4.1
22106,8.4
22110,6.1
22112,18.8
22115,18.5
22116,4.7
22124,13.7
22127,10.8
22128,22.0
22129,12.4
22131,26.2
22134,18.4
22136,27.6
22137,20.2
22138,27.0
22139,15.9
22143,29.1
22147,10.9
22150,17.1
22152,-22.7
22158,6.2
22159,24.6
22160,28.1
22161,15.7
22162,7.0
22164,27.4
22166,23.6
22172,4.6
22173,16.0
22174,6.7
22175,20.9
22177,24.4
22178,3.0
22180,26.7
22181,29.4
22185,27.4
22188,8.3
22189,32.9
22190,-4.7
22192,10.9
22193,5.6
22196,10.9
22197,4.4
22202,41.6
22203,18.9
22204,8.3
22208,14.6
22213,9.1
22214,18.5
22216,25.6
22217,11.6
22219,27.3
22221,10.3
22222,13.0
22225,8.7
22226,31.0
22227,13.3
22230,13.1
22232,36.9
22234,14.9
22235,10.8
22237,7.8
22238,18.3
22239,22.9
22240,18.5
22245,32.0
22247,22.5
22248,32.5
22252,-22.7
22253,7.7
22254,17.7
22259,17.1
22262,8.1
22263,31.7
22265,23.6
22267,29.9
22268,24.2
22271,31.6
22273,19.6
22277,26.3
22278,3.0
22280,4.3
22283,10.8
22284,4.0
22287,16.3
22289,34.0
22290,-4.7
22292,6.1
22293,4.6
22295,7.3
22296,16.9
22297,23.1
22302,41.6
22308,4.1
22309,26.6
22311,13.5
22313,30.0
22314,14.9
22315,18.5
22316,4.9
22322,14.9
22323,25.6
22324,20.2
22325,13.9
22326,23.1
22327,10.8
22329,17.6
22332,26.9
22334,21.0
22335,23.3
22338,13.8
22339,18.5
22340,7.9
22341,4.2
22345,31.0
22349,25.6
22351,-20.1
22353,35.8
22357,17.5
22359,22.9
22360,27.3
22362,7.3
22365,27.7
22366,21.0
22369,10.4
22370,14.9
22371,9.4
22377,14.9
22378,3.0
22380,9.3
22381,12.1
22384,9.4
22385,25.8
22386,36.3
22387,34.9
22389,-7.2
22390,14.7
22391,31.6
22392,10.4
22394,19.0
22397,18.7
22399,14.0
22402,41.6
22403,15.5
22404,12.9
22405,5.9
22412,27.1
22414,18.5
22417,27.5
22418,20.4
22419,17.4
22424,35.0
22427,10.8
22428,28.6
22429,26.3
22431,23.7
22434,5.5
22436,7.5
22437,7.8
22438,14.9
22439,21.0
22442,9.3
22443,14.7
22444,20.7
22445,18.4
22448,10.0
22449,18.7
22450,21.9
22452,-17.5
22453,21.8
22454,17.3
22456,11.3
22457,36.4
22458,13.1
22463,23.4
22465,21.0
22466,36.0
22467,4.7
22470,34.0
22472,15.8
22473,33.8
22474,33.4
22475,20.7
22476,27.3
22477,0.5
22478,23.6
22479,7.9
22484,21.9
22485,6.2
22488,33.3
22490,-4.7
22491,31.8
22492,31.3
22495,8.3
22497,24.1
22501,33.5
22502,41.6
22503,16.1
22504,27.2
22507,35.7
22508,29.3
22509,25.8
22510,16.0
22511,33.0
22514,18.5
22515,5.5
22516,28.3
22520,15.6
22521,17.4
22522,14.6
22526,10.8
22527,20.4
22528,24.0
22529,32.1
22530,7.5
22531,10.2
22532,18.8
22534,23.5
22536,22.1
22539,23.6
22541,4.6
22543,14.1
22548,14.9
22550,17.6
22551,-15.0
22553,8.7
22556,32.8
22559,14.7
22564,32.6
22565,21.0
22567,7.4
22569,36.9
22571,4.0
22574,22.8
22575,33.4
22576,15.8
22577,21.5
22578,-2.1
22579,19.3
22582,35.3
22585,30.3
22589,7.6
22590,-15.0
22591,15.5
22596,34.6
22598,9.5
22600,7.8
22601,10.8
22603,31.3
22605,16.5
22608,21.2
22612,29.6
22613,6.0
22614,34.2
22616,10.8
22618,10.5
22626,19.1
22629,-4.7
22630,26.5
22631,6.3
22632,26.2
22637,25.0
22641,41.6
22642,33.3
22647,23.4
22649,27.8
22652,4.2
22653,18.5
22655,36.6
22661,20.4
22662,16.9
22663,7.5
22664,7.9
22665,12.1
22666,13.3
22667,31.6
22669,23.9
22671,25.1
22672,23.1
22674,32.4
22675,23.6
22678,18.5
22680,19.4
22682,24.9
22684,34.7
22685,27.0
22688,34.9
22689,34.1
22691,-22.7
22699,32.3
22700,11.3
22703,21.2
22704,20.0
22705,23.6
22707,21.9
22710,21.1
22711,15.6
22713,31.3
22717,0.5
22721,20.9
22722,28.2
22728,-4.7
22729,35.8
22730,22.5
22731,24.3
22732,17.1
22735,25.5
22740,41.6
22742,22.0
22744,29.3
22746,29.6
22747,36.0
22748,19.4
22751,27.0
22752,5.7
22753,18.5
22758,34.0
22759,22.8
22762,25.3
22763,19.5
22764,20.4
22766,13.3
22770,13.4
22771,23.2
22774,24.2
22776,29.8
22777,28.0
22778,21.0
22780,31.2
22782,29.8
22784,14.3
22788,26.6
22790,25.2
22791,-20.1
22793,12.3
22795,30.4
22798,13.1
22801,32.0
22803,5.4
22804,23.6
22805,17.3
22808,33.9
22811,9.6
22813,18.1
22814,16.7
22816,3.0
22818,29.4
22820,15.3
22821,25.6
22822,13.8
22823,18.9
22826,15.7
22828,22.7
22829,-7.2
22830,26.7
22831,5.0
22832,30.4
22833,12.6
22840,15.2
22841,41.6
22842,25.5
22844,21.0
22845,34.4
22846,21.0
22848,35.5
22852,25.0
22853,21.0
22856,32.5
22859,28.4
22861,19.2
22865,10.8
22866,24.0
22873,29.8
22874,35.9
22878,21.0
22880,16.0
22882,32.2
22884,18.9
22887,29.0
22888,34.4
22891,-17.5
22893,20.4
22896,17.7
22897,36.5
22899,22.2
22901,16.5
22903,21.4
22904,21.0
22905,36.9
22911,11.2
22915,14.1
22917,0.5
22918,5.3
22919,31.8
22920,26.9
22923,5.9
22924,18.6
22925,26.1
22928,-7.2
22931,30.6
22932,31.7
22933,19.4
22935,16.8
22936,33.0
22937,26.6
22938,32.4
22940,41.6
22941,14.4
22944,4.8
22945,24.7
22949,20.2
22951,21.6
22952,21.0
22953,16.8
22954,9.2
22955,10.3
22957,27.6
22958,20.5
22961,13.3
22966,10.8
22968,11.8
22970,10.2
22972,23.2
22973,23.9
22974,8.3
22978,23.6
22983,22.3
22984,26.5
22985,5.4
22988,10.2
22990,-17.5
22993,6.9
22997,37.0
22998,8.6
23000,31.1
23003,30.4
23004,21.0
23005,14.4
23006,9.2
23007,11.9
23008,26.9
23009,27.5
23012,30.7
23016,0.5
23021,13.4
23022,18.9
23025,12.7
23028,-9.8
23030,26.8
23031,10.2
23033,36.0
23034,12.1
23035,19.9
23036,6.5
23037,18.0
23038,24.2
23039,33.2
23040,23.3
23041,41.6
23049,27.4
23050,14.4
23052,15.4
23053,18.5
23054,18.9
23056,36.6
23058,34.1
23059,8.9
23061,5.4
23065,10.8
23067,7.7
23069,12.3
23070,10.4
23071,36.2
23072,12.8
23077,26.2
23078,34.8
23080,15.9
23082,13.0
23086,19.5
23087,16.9
23090,29.3
23091,-9.8
23092,7.6
23094,22.6
23095,34.6
23096,23.7
23099,35.6
23100,8.9
23102,26.3
23103,26.2
23107,28.9
23108,4.5
23109,17.8
23111,5.0
23113,28.3
23115,8.2
23117,7.4
23119,9.1
23122,32.7
23123,33.9
23125,21.9
23126,11.8
23127,0.5
23128,27.4
23132,4.9
23135,16.7
23136,13.3
23137,22.4
23138,33.9
23140,15.6
23141,26.1
23147,34.9
23148,16.2
23149,14.7
23150,3.0
23151,35.0
23154,23.2
23155,5.7
23156,36.0
23158,11.0
23160,15.0
23162,31.3
23163,4.2
23165,20.4
23166,29.3
23168,24.0
23169,26.2
23173,34.5
23174,11.1
23175,13.3
23178,25.3
23179,20.1
23180,32.3
23181,10.3
23182,27.9
23183,6.0
23184,26.4
23187,-4.7
23188,17.6
23189,5.0
23191,9.9
23195,28.5
23198,12.1
23199,44.2
23200,22.7
23202,27.8
23203,36.4
23206,31.6
23208,35.3
23211,18.0
23212,18.5
23213,34.7
23218,4.6
23219,35.2
23222,10.1
23224,6.0
23225,13.3
23226,18.7
23228,35.3
23229,26.3
23232,17.2
23233,19.1
23234,24.0
23237,15.9
23238,18.2
23240,35.0
23244,19.3
23245,34.3
23246,6.2
23247,15.2
23249,-22.7
23251,7.6
23253,5.3
23254,10.8
23257,32.0
23258,12.3
23261,24.2
