0,172.8
1,168.3
2,180.5
4,216.6
5,165.1
6,166.1
7,157.4
9,217.9
10,149.7
11,163.3
12,172.8
15,175.4
18,164.3
19,192.2
20,191.2
23,180.5
24,200.3
25,188.3
26,159.9
28,222.0
30,194.1
31,201.8
33,183.1
35,182.2
36,199.1
39,174.6
40,188.7
41,175.4
44,180.5
45,172.6
47,182.4
49,171.5
52,211.6
54,180.5
55,177.4
57,218.9
58,208.7
60,217.4
65,170.2
67,177.3
68,216.0
74,216.8
75,172.8
77,164.6
78,197.8
80,206.6
82,226.6
84,189.1
86,165.1
89,174.7
92,217.0
93,199.4
95,158.6
96,165.1
98,172.7
104,192.8
106,162.5
107,158.2
111,170.1
117,172.8
119,194.1
120,186.3
121,218.9
125,160.9
127,170.5
128,215.4
130,154.8
131,193.5
135,199.3
141,193.4
145,169.1
146,223.4
147,192.9
152,178.0
154,192.4
156,220.1
158,214.5
161,196.1
162,181.4
163,175.4
164,168.5
167,195.1
168,170.1
175,172.8
182,176.5
184,195.9
186,167.7
191,169.2
198,180.5
199,205.3
200,178.6
203,164.8
206,205.8
207,185.4
208,215.9
209,157.4
210,171.3
211,179.6
212,172.3
214,214.5
221,198.5
222,212.5
223,159.6
224,192.9
226,218.2
227,181.6
228,205.4
229,169.5
231,176.1
232,196.0
233,183.5
234,162.3
236,190.5
238,209.4
239,223.2
241,198.7
243,190.8
244,184.6
246,223.1
248,227.1
252,172.2
253,214.6
254,183.1
256,165.8
258,199.5
260,174.5
261,183.1
264,213.2
267,172.8
269,174.9
270,221.2
272,159.8
273,198.3
278,193.4
281,198.2
282,158.1
289,167.7
291,158.7
292,159.5
293,198.9
294,180.5
296,172.4
301,201.1
302,157.2
303,221.2
305,216.0
306,205.2
309,180.5
312,193.4
313,162.9
314,162.1
315,198.8
317,203.8
318,176.9
323,180.5
326,176.7
330,202.8
334,184.1
335,172.8
337,209.0
340,193.1
341,193.2
344,200.6
346,223.6
347,172.8
353,216.4
358,198.5
359,200.3
361,189.0
362,182.7
363,168.3
364,221.6
366,182.7
367,211.8
369,172.8
370,191.3
371,201.7
372,197.1
376,210.3
377,165.1
378,193.3
379,164.0
380,201.1
381,198.6
383,168.9
384,161.1
386,209.7
388,189.3
390,194.8
391,203.5
393,196.0
399,203.7
404,188.3
405,201.4
407,161.3
409,165.9
410,194.1
411,169.5
413,199.8
415,178.0
416,217.9
419,220.7
423,189.3
426,222.7
427,170.2
428,210.0
430,194.1
434,221.9
438,203.7
441,174.9
445,179.7
446,163.1
449,193.4
455,175.1
456,222.7
459,186.6
461,208.8
463,210.8
464,167.5
465,227.6
467,226.7
469,163.5
472,169.1
473,203.7
474,171.7
475,158.1
478,194.0
479,180.6
480,187.3
481,194.6
482,211.8
484,188.3
485,197.6
489,199.9
492,227.0
493,216.1
495,183.1
497,161.7
501,224.1
502,180.2
505,156.8
506,172.8
508,215.1
509,209.1
514,200.4
515,222.0
517,225.6
518,211.4
519,207.8
520,201.4
523,168.0
525,163.6
527,189.7
529,159.4
530,196.0
533,178.7
534,196.3
539,186.6
540,186.5
541,201.1
542,171.0
550,215.3
552,193.4
553,182.9
554,201.2
558,203.3
561,209.6
564,185.7
566,194.8
568,157.5
571,208.0
572,225.2
573,156.9
575,188.3
577,216.2
579,178.9
583,165.1
584,184.4
585,209.7
586,172.8
587,164.8
588,197.4
589,212.7
590,161.7
593,173.9
594,217.8
595,165.0
599,214.0
604,197.3
605,190.2
608,165.7
610,203.7
611,218.4
612,181.2
613,173.5
614,186.7
615,197.3
616,205.7
619,179.6
620,194.5
621,201.1
623,163.3
627,192.2
629,164.9
632,190.8
634,176.4
635,160.4
636,165.8
638,171.3
642,189.2
643,184.8
644,178.0
646,221.2
648,223.2
655,185.7
656,213.2
659,194.2
661,170.8
662,210.5
663,166.1
664,187.7
666,171.6
667,180.5
669,181.1
671,207.9
672,184.9
673,173.7
674,181.4
675,213.5
678,221.7
679,160.3
681,156.5
685,180.0
688,179.2
689,218.9
690,206.3
694,210.1
695,225.9
696,162.5
698,201.6
699,177.0
700,203.9
701,198.5
702,162.2
705,180.1
706,183.8
707,183.0
711,198.1
712,188.3
714,196.9
715,181.7
717,212.9
719,164.3
720,183.3
721,173.7
724,178.0
728,224.9
734,200.2
735,203.5
736,196.0
739,216.4
741,221.6
744,190.0
745,169.1
747,180.5
748,158.0
753,167.4
754,198.8
755,227.8
756,202.8
758,214.0
759,185.5
764,180.7
765,174.0
766,168.8
767,161.9
768,214.1
770,201.1
771,174.5
773,214.8
774,205.2
775,161.5
777,220.3
779,200.9
780,206.2
781,190.8
782,225.0
787,179.3
789,220.2
790,180.1
793,185.7
795,218.8
798,201.7
799,177.6
800,215.6
801,159.1
804,178.0
807,182.9
810,165.0
811,169.6
813,196.3
816,198.5
818,156.1
821,191.3
824,171.4
827,180.5
828,175.0
829,191.0
831,171.0
834,165.7
835,217.7
838,206.3
839,218.8
840,175.0
841,174.7
843,175.5
846,164.4
847,210.4
849,193.4
851,172.6
853,178.8
855,171.2
857,157.6
858,185.6
860,213.4
862,178.0
865,186.1
867,185.0
868,206.1
872,218.0
873,175.4
876,203.5
880,199.7
881,225.5
882,222.2
883,197.0
884,170.2
885,168.5
887,194.6
889,217.8
892,223.6
894,192.7
896,201.1
898,211.1
899,218.7
902,210.3
907,175.4
909,181.2
910,217.6
912,173.1
915,215.9
916,179.7
918,193.4
921,209.9
922,188.7
923,216.9
924,164.9
928,175.1
930,188.3
933,170.2
935,202.2
937,186.6
939,195.8
942,175.4
943,196.3
944,164.6
946,163.6
948,183.6
949,215.9
953,175.4
955,175.5
957,207.9
959,215.7
961,170.6
964,172.8
968,224.2
969,198.5
972,210.7
975,208.8
976,220.9
978,192.5
980,170.8
984,189.8
985,202.9
986,181.9
987,185.7
988,192.9
989,208.7
990,171.4
993,176.4
994,190.2
995,157.0
996,174.1
999,198.5
1003,172.7
1004,156.6
1006,156.9
1007,221.7
1008,223.8
1010,196.0
1011,181.1
1012,192.9
1013,201.9
1017,186.2
1018,157.7
1020,195.2
1022,178.0
1023,184.5
1024,181.1
1025,212.7
1026,225.8
1027,222.5
1028,160.9
1034,217.0
1035,203.7
1037,218.1
1038,172.8
1047,193.4
1048,162.1
1049,158.5
1052,203.0
1053,188.4
1058,165.6
1060,185.7
1061,175.3
1062,176.1
1064,157.4
1065,206.9
1066,191.6
1071,198.6
1072,206.7
1073,175.4
1076,163.2
1078,171.5
1079,175.5
1082,227.8
1083,173.3
1085,170.2
1086,195.7
1088,161.4
1096,200.7
1097,206.3
1100,207.5
1101,178.3
1106,224.7
1107,222.5
1109,166.4
1110,190.8
1113,175.9
1114,224.6
1116,158.0
1119,208.6
1120,196.2
1122,172.8
1124,166.9
1125,184.1
1127,174.4
1128,223.2
1129,185.3
1130,169.2
1132,182.9
1133,227.4
1134,216.6
1135,203.7
1138,213.1
1139,169.4
1143,157.0
1145,215.9
1146,206.0
1147,193.4
1149,204.5
1151,168.4
1157,163.2
1158,194.4
1160,188.3
1163,200.8
1165,158.6
1166,178.0
1168,193.9
1169,163.1
1171,183.5
1172,183.1
1174,159.6
1175,156.9
1176,195.3
1178,188.3
1179,203.0
1181,160.0
1182,223.0
1183,212.1
1184,178.0
1185,158.3
1186,180.1
1191,213.1
1194,184.1
1196,213.8
1198,208.8
1199,207.9
1200,161.0
1202,181.9
1203,185.5
1205,195.1
1206,158.2
1207,180.4
1210,190.8
1213,190.3
1214,178.5
1215,160.3
1217,191.6
1218,165.8
1222,178.0
1223,224.8
1225,196.5
1231,156.9
1233,213.5
1234,216.6
1235,171.6
1236,189.2
1237,169.6
1239,212.1
1241,203.1
1243,168.4
1244,162.7
1247,201.1
1250,170.7
1252,214.5
1253,196.8
1256,209.5
1258,190.0
1260,190.8
1261,161.4
1263,184.1
1264,166.3
1271,164.6
1272,185.7
1273,213.9
1274,174.3
1276,218.6
1280,207.1
1284,176.1
1285,175.4
1291,185.3
1294,164.1
1297,201.1
1299,191.7
1301,197.0
1302,195.4
1303,227.5
1306,160.9
1308,216.1
1309,190.8
1310,188.7
1313,178.1
1321,178.0
1324,185.3
1325,226.8
1335,211.4
1340,166.4
1341,172.2
1342,177.7
1344,217.7
1347,203.7
1348,223.0
1350,165.5
1351,182.0
1352,162.7
1354,184.6
1355,166.4
1357,169.0
1358,221.6
1359,185.7
1364,175.4
1366,161.9
1368,224.7
1369,221.8
1372,188.3
1373,203.8
1374,157.2
1375,175.6
1377,209.4
1383,188.1
1384,188.3
1386,216.7
1389,219.6
1390,183.1
1395,157.6
1396,204.6
1397,208.8
1401,186.3
1402,201.0
1405,178.7
1406,172.2
1407,165.4
1408,185.4
1410,190.8
1413,202.9
1414,199.4
1418,177.6
1420,196.1
1421,225.9
1422,175.4
1424,204.8
1425,175.5
1426,180.8
1427,205.8
1429,198.1
1432,181.3
1433,183.5
1434,219.1
1435,165.5
1436,163.7
1441,204.1
1443,179.0
1444,223.0
1446,208.8
1447,197.9
1450,216.6
1455,168.3
1459,187.0
1460,196.0
1461,219.4
1463,227.5
1466,206.6
1467,208.7
1468,213.8
1470,219.7
1472,203.7
1475,174.4
1476,196.0
1477,213.0
1480,221.4
1484,185.7
1488,193.0
1490,186.3
1491,171.4
1492,183.3
1494,160.2
1496,156.7
1497,201.1
1498,193.8
1500,178.5
1506,174.6
1509,188.3
1510,192.8
1512,172.6
1513,215.1
1514,196.1
1516,162.4
1518,196.6
1521,185.7
1522,197.2
1525,191.3
1526,200.6
1528,196.8
1529,162.2
1530,177.7
1531,159.6
1534,221.7
1536,197.1
1537,208.3
1542,194.1
1543,215.3
1544,220.3
1545,226.2
1547,206.3
1551,184.3
1555,225.3
1557,201.0
1558,216.0
1559,188.3
1561,212.6
1562,226.5
1564,176.1
1565,175.4
1567,187.5
1568,188.3
1571,201.1
1572,224.4
1573,192.3
1576,164.4
1577,197.3
1578,194.0
1584,198.5
1585,178.9
1586,187.1
1590,166.7
1591,217.6
1597,206.3
1598,168.1
1599,227.8
1601,170.3
1608,208.3
1609,190.8
1610,205.4
1611,209.5
1614,218.4
1616,181.9
1617,179.7
1618,219.3
1620,210.8
1621,156.1
1622,180.5
1624,157.5
1631,195.5
1632,183.1
1633,213.1
1634,216.6
1635,209.6
1637,227.6
1640,188.6
1641,198.7
1646,201.1
1647,200.1
1649,156.2
1650,193.5
1651,211.3
1653,196.9
1655,162.5
1659,190.8
1660,174.2
1662,185.2
1663,156.2
1665,197.7
1667,217.6
1670,162.6
1671,196.9
1672,211.4
1676,209.4
1677,167.0
1679,172.9
1682,205.4
1683,170.5
1684,201.1
1685,188.9
1686,215.9
1689,204.5
1691,224.0
1693,197.6
1696,198.5
1698,189.1
1700,207.6
1701,159.2
1702,156.6
1703,213.3
1704,180.3
1706,195.1
1709,185.7
1710,216.7
1711,161.9
1712,217.5
1713,221.5
1715,186.6
1717,228.0
1719,184.0
1721,178.0
1723,158.9
1724,157.7
1726,199.0
1728,216.6
1732,198.4
1734,219.1
1735,176.0
1739,171.8
1740,187.3
1741,220.1
1743,208.1
1745,173.6
1746,206.3
1753,188.1
1754,222.9
1758,193.7
1759,183.1
1764,162.1
1770,162.7
1771,203.7
1772,199.5
1773,202.5
1774,206.0
1775,179.7
1777,166.2
1779,197.3
1780,213.9
1781,166.8
1783,196.0
1788,157.3
1789,201.8
1790,214.0
1791,203.9
1793,160.9
1795,170.6
1796,210.9
1797,196.0
1798,176.0
1800,185.6
1809,185.7
1815,188.1
1816,183.0
1817,197.4
1821,180.5
1822,199.0
1824,176.4
1825,220.1
1826,175.7
1828,185.1
1830,187.8
1833,216.6
1834,207.6
1840,162.9
1841,195.6
1842,175.2
1843,202.4
1844,157.2
1846,198.5
1848,166.0
1851,211.4
1854,221.5
1855,205.6
1857,167.0
1858,165.9
1859,180.5
1861,172.0
1863,188.2
1864,222.4
1865,176.8
1866,156.1
1870,225.2
1871,208.8
1872,184.2
1873,158.4
1877,181.0
1880,219.9
1882,191.8
1884,211.4
1885,205.6
1886,221.1
1887,189.7
1889,212.9
1891,181.8
1892,225.9
1893,185.6
1896,206.3
1897,167.5
1905,223.0
1907,180.8
1908,190.8
1913,188.7
1914,156.6
1917,162.3
1920,200.6
1921,178.0
1925,227.5
1926,196.3
1930,166.0
1931,206.5
1934,214.0
1936,163.7
1941,164.4
1945,186.1
1946,201.1
1950,161.0
1957,168.7
1958,185.7
1959,201.5
1960,179.6
1961,196.6
1963,176.7
1968,218.4
1969,184.6
1971,216.6
1977,219.6
1979,160.4
1980,199.3
1983,201.1
1985,171.8
1986,175.0
1988,185.4
1989,159.9
1991,165.2
1996,193.4
1997,173.4
2000,166.3
2001,162.2
2003,162.5
2004,219.3
2005,221.3
2006,170.4
2007,221.1
2009,188.3
2010,196.9
2011,227.3
2013,201.2
2015,160.9
2019,162.4
2021,183.1
2022,158.1
2023,221.1
2024,224.1
2026,207.5
2027,156.8
2032,209.0
2033,214.0
2036,187.3
2041,179.4
2043,224.8
2044,211.6
2045,196.0
2046,208.6
2049,226.1
2050,174.6
2051,183.5
2056,159.3
2058,219.0
2059,178.0
2063,203.2
2064,220.4
2066,226.4
2067,186.2
2068,171.8
2070,201.6
2071,211.4
2072,183.6
2073,225.6
2074,163.7
2077,162.3
2078,173.0
2080,182.3
2082,207.8
2083,203.7
2084,213.5
2085,226.8
2089,225.4
2090,178.3
2091,216.9
2093,174.7
2094,181.2
2096,190.8
2097,225.2
2098,162.0
2099,227.9
2100,194.5
2101,167.7
2102,178.9
2105,163.3
2108,190.8
2109,204.9
2113,215.5
2114,204.1
2115,169.2
2116,188.6
2117,156.3
2119,184.2
2120,180.5
2121,186.1
2125,214.3
2128,223.3
2129,223.1
2131,212.4
2134,206.3
2135,224.6
2137,217.6
2138,175.9
2139,161.5
2144,222.7
2146,190.8
2148,219.3
2149,219.6
2150,185.4
2153,195.3
2157,192.8
2158,180.5
2159,216.8
2165,212.9
2167,177.1
2170,219.1
2171,189.6
2172,161.8
2176,167.5
2178,160.3
2182,171.0
2183,206.3
2186,157.1
2189,185.7
2190,223.2
2191,214.1
2194,177.8
2196,190.8
2197,196.7
2199,227.5
2202,226.1
2208,193.4
2210,165.0
2213,178.6
2215,175.6
2216,171.1
2219,159.9
2220,208.3
2221,188.3
2223,219.3
2225,210.3
2226,195.4
2228,224.2
2230,166.9
2232,180.2
2233,211.4
2234,201.9
2235,216.7
2236,199.5
2237,210.1
2239,167.8
2242,174.5
2244,212.6
2245,193.4
2246,157.2
2250,184.8
2252,205.7
2253,213.7
2254,202.3
2255,162.3
2256,164.9
2257,204.3
2258,180.5
2260,200.1
2263,211.7
2264,195.4
2265,161.8
2266,166.6
2267,173.9
2269,217.7
2271,214.0
2272,186.9
2275,178.1
2276,180.3
2278,198.2
2279,176.7
2281,219.0
2283,203.7
2288,192.2
2290,168.9
2292,160.7
2293,193.2
2295,185.7
2297,198.2
2298,186.2
2299,157.7
2300,185.2
2301,174.7
2302,211.7
2304,181.0
2308,193.4
2309,163.1
2310,163.3
2311,159.1
2313,162.6
2314,214.7
2316,182.7
2317,170.1
2320,193.4
2321,210.0
2322,161.9
2325,208.3
2328,173.8
2333,201.1
2335,158.1
2337,207.0
2339,159.7
2340,200.0
2342,224.5
2343,186.5
2344,215.3
2345,185.7
2346,173.3
2351,166.2
2353,207.4
2354,202.2
2355,192.4
2358,178.0
2359,159.8
2370,216.6
2371,160.2
2372,167.7
2373,228.0
2379,170.5
2382,206.3
2383,198.8
2384,195.7
2389,198.6
2390,199.5
2391,225.0
2394,161.8
2396,185.7
2397,214.1
2398,158.3
2402,157.0
2403,177.4
2406,223.4
2408,196.0
2409,214.6
2410,173.3
2412,210.0
2419,191.7
2420,190.8
2421,163.1
2422,215.2
2424,210.9
2425,195.9
2426,159.3
2427,209.9
2428,219.7
2430,210.6
2433,201.1
2436,219.7
2438,167.2
2439,227.1
2440,181.5
2442,207.5
2444,226.4
2445,190.8
2452,227.3
2458,183.1
2461,208.0
2464,174.6
2468,197.9
2470,219.1
2473,176.5
2475,226.4
2481,189.6
2482,193.7
2483,201.1
2484,218.4
2486,222.3
2488,201.3
2490,161.5
2493,225.0
2494,180.5
2495,183.1
2496,180.3
2498,167.9
2499,164.6
2507,198.5
2508,190.0
2509,168.0
2517,194.1
2518,218.4
2520,193.4
2522,187.9
2529,209.6
2530,190.0
2531,212.1
2533,198.5
2534,199.1
2538,160.0
2544,172.3
2545,185.7
2548,164.1
2551,185.9
2552,186.7
2553,195.8
2555,192.9
2556,212.1
2557,175.4
2558,189.8
2561,216.1
2562,165.3
2565,170.6
2567,198.9
2569,210.6
2570,208.8
2572,201.6
2578,183.7
2579,190.6
2581,211.8
2582,198.5
2584,194.6
2585,190.9
2587,216.3
2590,158.9
2595,185.7
2596,219.2
2600,196.3
2603,163.6
2604,221.0
2606,169.1
2608,206.3
2609,176.6
2610,157.1
2613,208.0
2614,195.5
2615,212.5
2618,189.5
2620,196.0
2622,225.9
2623,158.3
2625,168.2
2626,174.5
2628,218.5
2630,170.0
2631,211.3
2632,193.4
2634,171.4
2636,184.5
2641,169.4
2644,183.1
2648,225.9
2649,164.8
2651,198.1
2652,212.8
2653,183.7
2656,204.2
2657,183.5
2658,180.5
2662,181.4
2664,188.8
2665,184.7
2669,190.0
2670,219.1
2672,184.0
2675,187.9
2676,205.2
2677,160.8
2678,200.6
2679,164.5
2680,197.6
2682,201.1
2684,226.7
2688,223.1
2689,206.2
2693,223.7
2694,223.9
2695,180.5
2696,162.4
2697,160.0
2700,164.3
2702,185.3
2703,177.5
2704,166.5
2705,161.2
2706,190.6
2707,203.7
2710,156.7
2712,170.2
2713,159.3
2714,223.8
2715,214.6
2718,193.6
2719,201.1
2722,174.6
2724,212.3
2731,176.3
2732,171.3
2733,193.4
2735,209.9
2736,164.1
2740,194.7
2741,172.0
2742,165.9
2743,195.0
2744,177.1
2745,178.0
2747,160.7
2748,157.7
2752,177.7
2753,163.7
2757,175.4
2758,186.6
2765,214.3
2769,208.8
2770,161.4
2772,157.1
2773,217.8
2774,159.4
2775,163.3
2777,221.6
2779,183.1
2780,207.8
2782,198.5
2787,211.0
2788,207.4
2789,227.2
2792,206.3
2795,185.7
2796,185.1
2797,213.2
2799,172.6
2801,218.5
2803,200.2
2805,179.8
2806,178.3
2807,216.6
2808,162.5
2811,156.2
2816,157.2
2817,164.5
2819,210.8
2820,201.1
2822,221.7
2823,186.3
2824,211.3
2825,167.2
2827,192.4
2829,214.2
2831,212.7
2832,188.3
2835,217.6
2836,164.8
2842,190.0
2844,178.0
2846,195.7
2847,179.1
2851,211.1
2852,218.2
2853,165.9
2854,211.5
2855,221.2
2856,221.3
2857,185.7
2858,179.7
2860,163.1
2861,172.9
2865,182.8
2868,196.5
2869,192.5
2870,214.0
2873,180.6
2878,174.7
2880,183.1
2882,201.1
2883,223.6
2884,159.3
2888,204.3
2891,199.1
2893,167.6
2894,180.5
2895,208.9
2896,157.4
2897,177.3
2901,177.1
2903,210.6
2904,216.7
2905,182.6
2907,214.0
2908,176.2
2910,211.7
2911,189.7
2914,158.6
2916,160.7
2919,201.1
2920,163.3
2921,189.2
2926,160.4
2927,192.0
2929,164.8
2931,183.7
2932,190.8
2934,175.0
2937,203.0
2938,194.3
2939,202.2
2940,172.6
2941,203.8
2942,160.4
2944,163.0
2945,185.7
2946,178.9
2948,226.5
2949,194.2
2957,175.4
2966,211.9
2969,203.7
2977,220.0
2978,177.3
2980,161.2
2981,193.4
2982,177.7
2983,217.0
2986,206.8
2988,204.4
2990,183.6
2991,167.7
2992,168.4
2994,174.7
2995,180.5
2996,210.1
2997,205.3
2998,185.0
2999,166.6
3000,188.5
3002,196.0
3003,216.0
3004,227.8
3005,188.3
3006,186.9
3007,216.6
3009,165.8
3011,188.1
3014,220.3
3017,205.2
3019,208.8
3020,166.4
3021,224.1
3023,217.9
3025,206.9
3026,223.9
3027,171.0
3028,195.5
3029,222.3
3031,190.3
3032,188.3
3035,205.8
3036,181.8
3039,165.0
3042,220.3
3043,187.0
3044,188.3
3046,192.3
3051,190.2
3054,159.8
3056,220.5
3057,180.5
3061,206.0
3064,213.4
3067,193.2
3068,223.4
3069,203.7
3072,227.5
3076,198.6
3078,172.8
3082,196.0
3084,160.1
3086,180.1
3087,182.7
3088,172.9
3094,180.5
3095,156.4
3098,212.8
3100,205.5
3102,223.9
3103,199.5
3106,216.6
3108,166.4
3109,170.4
3110,186.1
3111,162.0
3112,221.1
3116,198.9
3117,188.4
3119,198.5
3122,224.5
3124,211.9
3125,178.6
3127,205.1
3129,209.1
3130,185.6
3131,160.2
3132,180.5
3133,190.1
3134,198.9
3135,189.4
3136,207.2
3137,180.8
3138,167.4
3140,217.2
3142,198.2
3143,218.1
3144,188.3
3145,173.4
3150,212.3
3151,174.7
3152,216.8
3154,190.3
3155,217.9
3156,188.3
3158,210.0
3160,165.4
3161,208.5
3165,169.0
3166,206.8
3169,198.5
3171,168.6
3173,202.3
3176,190.7
3178,163.7
3181,183.1
3182,161.4
3183,189.5
3184,182.7
3185,219.9
3186,186.7
3187,164.7
3192,191.4
3193,186.5
3194,170.2
3195,160.1
3198,177.2
3200,200.4
3201,195.1
3203,164.2
3204,175.3
3207,208.8
3208,195.8
3209,197.6
3211,172.8
3212,183.0
3213,223.7
3215,216.2
3219,198.5
3220,224.8
3222,156.6
3227,198.1
3228,214.1
3231,185.7
3233,169.5
3235,220.7
3237,209.8
3238,227.6
3239,226.8
3241,213.2
3242,157.0
3244,193.4
3245,227.8
3247,220.1
3249,169.3
3250,184.6
3251,191.7
3252,161.6
3253,186.4
3254,157.8
3255,161.1
3256,189.4
3257,183.1
3262,219.9
3263,157.4
3264,171.6
3265,227.8
3267,184.8
3268,170.0
3269,193.4
3271,219.9
3272,158.8
3273,180.7
3274,156.8
3276,158.4
3277,198.0
3278,171.0
3279,185.8
3280,189.0
3281,178.0
3284,174.3
3286,176.1
3287,197.6
3289,217.4
3290,218.1
3291,187.7
3294,170.2
3297,196.6
3300,212.3
3301,187.2
3303,173.4
3305,196.0
3306,203.7
3307,194.9
3317,225.0
3318,196.0
3320,158.3
3322,184.6
3323,222.9
3327,174.7
3331,167.3
3332,178.0
3339,181.2
3344,193.4
3348,208.5
3350,214.9
3354,195.6
3356,190.8
3360,163.8
3361,199.5
3362,209.1
3365,172.2
3366,189.3
3367,167.4
3368,193.4
3370,210.6
3371,169.0
3373,218.0
3376,167.5
3377,197.2
3381,175.4
3384,215.2
3386,172.0
3389,203.0
3393,177.5
3394,167.7
3398,211.6
3401,214.8
3402,160.3
3406,206.3
3412,215.8
3413,207.7
3414,188.6
3415,202.5
3416,215.3
3417,188.7
3418,168.0
3419,198.5
3420,202.4
3422,181.6
3428,170.8
3430,191.2
3431,175.4
3432,200.9
3433,201.1
3434,182.9
3435,188.6
3436,156.0
3437,217.9
3440,187.3
3443,196.0
3445,214.8
3447,186.1
3448,191.7
3451,182.2
3453,185.7
3454,218.7
3457,185.7
3458,168.2
3459,195.3
3463,203.9
3464,222.4
3469,185.7
3471,196.7
3473,216.7
3475,168.4
3476,159.3
3480,169.4
3481,175.4
3482,161.6
3483,182.7
3485,215.4
3493,172.8
3494,177.5
3495,214.6
3499,200.6
3500,176.1
3502,195.0
3505,221.8
3506,208.8
3508,198.1
3509,168.5
3511,167.3
3513,224.9
3515,173.8
3516,168.5
3518,190.8
3519,224.9
3521,173.6
3526,160.8
3527,167.1
3529,182.9
3531,178.0
3532,202.9
3542,179.9
3544,206.3
3546,217.5
3547,160.3
3550,200.5
3551,208.5
3552,227.2
3556,203.7
3560,176.4
3561,213.3
3566,205.2
3567,158.4
3568,193.4
3569,217.6
3570,197.8
3574,214.5
3576,214.2
3578,176.5
3580,180.5
3582,212.4
3583,200.9
3585,210.4
3587,173.7
3592,219.0
3594,170.2
3597,177.2
3598,173.7
3601,222.2
3606,203.7
3607,198.6
3609,165.5
3613,214.5
3615,157.9
3616,196.6
3617,209.3
3618,190.8
3619,228.0
3620,172.6
3622,165.1
3627,225.5
3628,175.4
3630,175.5
3631,185.7
3632,167.6
3633,197.7
3634,188.0
3635,180.0
3637,199.1
3639,178.5
3641,219.0
3642,199.3
3643,214.0
3645,165.6
3647,160.1
3649,166.3
3653,225.6
3656,198.5
3659,184.9
3662,161.4
3668,185.7
3669,189.1
3670,198.3
3673,176.0
3675,160.7
3678,157.1
3679,169.1
3681,178.0
3682,211.8
3685,175.3
3686,162.7
3688,170.6
3689,188.3
3691,200.8
3693,178.0
3695,213.4
3701,198.2
3703,169.0
3705,206.3
3706,188.1
3709,206.6
3710,163.2
3718,190.8
3719,182.8
3720,208.0
3722,165.2
3723,186.5
3725,224.5
3726,190.1
3727,166.9
3728,217.4
3729,201.3
3731,175.4
3732,184.7
3733,183.6
3734,220.6
3737,166.2
3738,157.8
3743,208.8
3745,200.7
3746,164.7
3748,214.2
3749,172.5
3750,156.3
3751,198.7
3752,203.5
3753,219.3
3754,221.0
3756,201.1
3757,178.7
3759,165.9
3762,160.4
3766,168.0
3768,190.8
3773,163.6
3774,181.5
3778,172.6
3779,179.9
3780,183.1
3781,156.7
3782,162.8
3783,171.1
3786,211.6
3788,163.2
3789,202.1
3791,177.6
3792,204.0
3793,175.4
3795,159.6
3796,217.3
3797,190.9
3799,198.6
3800,201.9
3801,174.8
3804,199.6
3805,165.1
3806,198.5
3808,205.9
3809,174.1
3813,165.5
3814,225.9
3818,185.7
3819,192.1
3820,173.0
3824,214.9
3825,201.2
3826,204.6
3828,206.4
3829,194.9
3830,172.8
3834,163.9
3838,169.0
3840,222.8
3843,211.4
3844,156.5
3847,211.6
3848,190.8
3849,159.0
3853,191.5
3854,183.5
3856,196.0
3860,197.4
3861,225.2
3863,219.4
3866,210.5
3867,198.4
3868,178.0
3871,227.0
3872,187.0
3874,162.9
3875,218.8
3876,223.9
3880,175.4
3881,167.9
3882,189.6
3885,195.1
3886,176.9
3888,187.2
3889,160.1
3892,193.4
3893,175.4
3895,201.8
3897,212.6
3898,181.9
3899,194.0
3900,169.8
3902,209.2
3904,168.4
3905,196.0
3907,211.8
3909,206.4
3910,207.2
3911,190.4
3916,185.1
3917,185.7
3918,168.4
3920,209.3
3923,175.2
3926,190.7
3927,203.4
3929,212.1
3931,170.2
3935,182.1
3937,222.5
3941,218.1
3943,206.3
3944,201.9
3947,179.0
3954,182.9
3955,198.5
3956,212.6
3957,184.2
3958,196.0
3960,168.4
3962,218.6
3964,156.6
3968,183.1
3971,163.7
3978,169.2
3979,208.5
3980,188.3
3985,203.8
3989,201.8
3990,168.1
3993,183.1
3994,219.6
3995,177.6
3997,168.4
3998,185.6
3999,198.4
4001,174.1
4002,169.0
4003,156.9
4005,196.0
4006,217.3
4007,168.2
4008,167.7
4012,222.4
4015,162.3
4016,197.0
4018,178.0
4019,168.6
4020,156.8
4023,157.0
4027,206.6
4030,172.8
4032,186.1
4034,168.3
4035,205.9
4036,158.9
4039,185.5
4040,156.0
4042,211.4
4047,222.1
4050,220.2
4053,215.6
4054,159.8
4056,196.0
4059,197.8
4064,187.0
4066,169.3
4067,190.4
4068,175.4
4069,176.5
4077,158.8
4079,207.6
4080,180.5
4084,200.2
4087,159.6
4091,210.7
4092,178.0
4093,197.4
4094,173.7
4098,210.9
4101,194.8
4103,168.8
4104,167.5
4105,188.3
4107,216.2
4108,162.7
4111,224.4
4112,172.0
4114,217.4
4116,206.0
4117,175.4
4120,186.2
4121,157.5
4125,194.1
4127,189.2
4130,172.8
4133,203.5
4139,179.1
4141,176.2
4142,164.0
4143,208.8
4147,205.3
4155,193.4
4159,186.1
4160,216.5
4167,178.0
4168,190.1
4173,187.4
4174,165.3
4176,176.3
4179,198.5
4181,207.0
4182,207.4
4183,181.5
4188,157.1
4190,179.4
4191,189.3
4192,170.4
4193,190.8
4199,186.5
4200,188.0
4202,186.6
4204,166.6
4205,196.0
4209,172.1
4211,164.0
4212,226.8
4213,219.8
4216,212.6
4217,175.4
4218,164.3
4220,202.3
4227,213.1
4228,174.6
4229,207.3
4230,167.7
4234,225.5
4236,177.6
4237,223.6
4238,207.5
4240,184.0
4241,175.9
4242,206.3
4244,214.8
4245,164.4
4246,209.9
4254,189.1
4255,198.5
4258,189.4
4259,203.4
4260,184.0
4261,182.1
4263,224.5
4264,220.4
4265,210.1
4268,178.0
4269,186.4
4272,205.9
4273,212.9
4274,199.5
4280,196.0
4281,169.0
4282,226.2
4283,215.0
4284,219.4
4285,214.2
4286,190.1
4287,217.8
4288,163.2
4289,195.6
4291,157.4
4292,185.7
4293,162.2
4294,216.9
4297,200.6
4298,196.7
4299,168.4
4301,206.2
4304,185.7
4306,159.0
4307,168.1
4308,196.3
4309,188.1
4311,175.2
4317,175.4
4318,175.2
4321,211.3
4322,168.1
4323,175.3
4324,186.8
4326,180.1
4328,170.1
4329,215.3
4330,175.4
4333,197.2
4334,188.3
4336,210.8
4338,156.8
4339,181.8
4342,211.4
4345,177.1
4346,194.6
4347,209.7
4348,183.3
4350,210.8
4351,186.1
4353,196.9
4354,176.2
4355,193.4
4357,189.7
4359,170.2
4360,187.2
4361,206.8
4364,160.6
4366,156.9
4367,175.4
4368,224.9
4371,198.9
4373,172.4
4379,198.5
4380,219.0
4385,201.1
4389,178.5
4390,209.4
4391,175.3
4392,203.7
4394,162.6
4395,208.3
4397,172.9
4398,212.2
4404,199.4
4405,198.5
4406,216.1
4408,158.3
4411,212.2
4414,190.3
4417,180.5
4422,161.6
4423,204.4
4426,159.6
4429,175.4
4432,191.2
4434,202.6
4440,185.6
4442,208.8
4443,162.8
4445,172.0
4450,192.4
4451,221.3
4454,174.9
4455,198.5
4456,171.3
4459,159.7
4460,208.4
4461,161.9
4463,210.2
4467,183.1
4472,216.7
4474,225.3
4480,208.8
4486,181.3
4487,185.9
4488,220.5
4489,217.1
4490,165.5
4491,219.1
4492,198.5
4493,210.4
4497,185.1
4498,222.6
4499,220.9
4500,212.3
4502,182.5
4503,177.4
4504,188.3
4505,206.0
4510,193.4
4511,214.8
4515,209.8
4516,183.1
4518,197.1
4519,223.6
4520,166.7
4522,190.2
4523,206.1
4525,197.5
4526,163.9
4527,211.9
4528,178.2
4530,183.1
4532,159.0
4534,188.7
4536,216.6
4537,196.5
4538,157.5
4539,226.3
4540,182.2
4542,216.6
4543,210.2
4544,186.8
4547,180.3
4549,158.6
4550,206.8
4553,188.0
4554,196.0
4555,221.9
4557,198.6
4558,173.7
4559,157.9
4562,190.8
4564,187.7
4565,171.2
4567,178.0
4568,214.9
4569,189.9
4571,213.0
4572,221.1
4575,195.5
4576,165.8
4577,208.9
4579,211.4
4580,186.3
4585,219.9
4586,190.2
4590,197.4
4592,201.1
4593,176.2
4600,161.9
4603,157.2
4604,196.0
4605,192.9
4608,192.6
4611,192.5
4612,179.7
4616,192.2
4617,188.3
4618,179.7
4620,199.0
4621,215.5
4622,183.9
4623,210.1
4624,197.2
4626,170.7
4627,204.9
4628,168.2
4629,178.0
4632,193.1
4634,200.5
4636,217.0
4637,210.4
4639,227.1
4640,157.7
4641,206.3
4642,216.8
4643,213.5
4645,201.9
4647,217.1
4649,216.8
4653,201.8
4654,197.1
4655,193.4
4657,166.0
4658,164.5
4665,188.8
4666,174.9
4667,183.1
4668,217.7
4669,186.4
4670,206.4
4671,161.6
4672,218.2
4674,205.2
4677,187.9
4678,185.3
4679,219.1
4681,170.8
4682,216.4
4683,210.9
4685,185.0
4689,167.7
4691,208.8
4694,223.0
4698,204.7
4699,219.3
4700,190.2
4701,223.9
4704,188.3
4706,197.8
4708,168.8
4710,216.3
4711,216.4
4713,161.8
4715,227.7
4716,185.7
4718,214.8
4719,223.0
4721,191.3
4723,196.5
4724,186.1
4726,179.2
4729,193.4
4730,219.6
4731,170.7
4732,213.9
4733,189.4
4734,188.9
4739,221.8
4740,156.4
4742,216.6
4743,186.4
4746,215.8
4752,200.0
4754,196.0
4756,168.4
4759,198.3
4764,167.4
4766,183.1
4768,170.8
4769,206.1
4770,194.6
4771,224.7
4772,172.9
4773,219.7
4774,204.6
4775,173.1
4779,216.6
4781,179.5
4782,205.5
4783,202.1
4785,205.8
4787,164.1
4788,181.8
4789,196.7
4791,226.4
4792,206.3
4793,188.4
4796,227.6
4797,199.1
4798,160.6
4799,180.5
4800,194.8
4801,169.7
4803,182.5
4804,190.8
4805,227.7
4807,194.2
4808,225.0
4810,175.6
4811,196.4
4812,192.9
4813,211.9
4814,203.4
4816,196.0
4817,173.7
4824,159.9
4825,166.6
4826,218.8
4827,204.8
4828,209.3
4829,185.7
4835,189.5
4836,194.8
4838,185.8
4841,201.1
4842,192.1
4844,222.8
4846,183.8
4847,183.1
4849,202.1
4851,203.8
4854,183.1
4855,204.8
4856,180.7
4857,202.5
4859,197.8
4867,175.4
4870,210.4
4871,221.0
4872,159.7
4874,183.3
4875,217.3
4876,219.5
4879,216.6
4880,197.8
4883,208.0
4884,166.2
4887,217.2
4888,192.8
4889,179.7
4891,206.3
4892,170.4
4896,188.3
4898,159.3
4901,190.3
4902,223.5
4903,185.7
4905,226.4
4907,185.7
4910,177.5
4912,188.1
4913,159.5
4915,158.2
4916,193.4
4919,201.3
4921,158.3
4922,202.1
4925,218.4
4927,217.8
4929,185.7
4932,188.7
4937,185.0
4939,194.1
4941,208.8
4942,199.2
4943,185.9
4945,168.5
4947,218.6
4948,177.3
4949,177.5
4954,201.1
4958,193.9
4959,210.2
4960,158.2
4962,217.2
4965,189.0
4966,188.3
4970,193.2
4971,203.5
4972,225.5
4973,224.5
4978,224.3
4983,169.2
4985,202.6
4987,201.5
4988,162.4
4990,186.2
4992,206.3
4993,156.2
4997,223.5
4999,205.4
5000,207.8
5004,185.7
5009,219.7
5011,183.7
5016,201.1
5021,163.9
5027,213.6
5028,198.5
5029,185.2
5030,165.5
5031,196.1
5032,194.2
5033,216.5
5034,173.3
5038,164.6
5039,160.1
5041,203.7
5042,210.5
5045,168.6
5048,222.4
5051,170.0
5052,220.9
5054,185.7
5056,175.0
5060,175.4
5062,179.5
5063,198.8
5064,201.4
5066,178.0
5067,169.2
5068,174.2
5072,227.9
5073,205.0
5075,219.0
5076,220.8
5079,219.1
5082,161.8
5085,156.8
5088,209.7
5089,214.4
5091,211.4
5094,223.0
5097,166.3
5098,167.7
5100,219.1
5101,171.5
5103,193.4
5104,199.0
5114,198.2
5115,211.4
5119,223.6
5120,167.2
5121,172.0
5125,182.2
5129,201.1
5132,156.6
5139,195.7
5141,198.5
5142,175.2
5145,188.5
5146,215.3
5147,222.7
5149,160.2
5152,199.9
5153,185.7
5156,202.7
5158,188.3
5159,165.5
5166,183.1
5170,210.3
5171,173.4
5173,178.9
5178,221.7
5179,216.8
5182,220.2
5183,178.2
5185,181.3
5186,172.0
5187,211.0
5189,174.4
5190,210.3
5191,206.3
5193,206.4
5197,214.7
5199,212.9
5201,212.1
5202,176.0
5203,183.1
5204,157.2
5206,173.5
5207,184.8
5209,206.5
5212,216.5
5213,220.7
5214,195.4
5216,208.8
5217,164.6
5218,218.9
5219,197.0
5221,227.9
5225,173.9
5226,182.6
5228,208.8
5229,223.6
5231,184.8
5233,167.0
5234,170.2
5240,206.3
5245,165.2
5246,186.8
5247,183.4
5250,214.1
5251,199.5
5252,201.0
5254,188.3
5256,194.1
5264,176.4
5265,161.3
5266,183.1
5267,182.8
5268,178.3
5269,214.8
5270,225.7
5272,217.6
5274,204.0
5276,168.5
5278,219.1
5279,209.9
5281,224.5
5284,169.4
5285,193.8
5286,169.3
5290,225.2
5291,206.3
5292,196.6
5293,165.3
5298,183.6
5299,184.7
5300,225.6
5303,193.4
5304,224.3
5310,197.0
5311,185.4
5312,169.6
5314,180.8
5315,219.1
5316,199.9
5317,198.5
5318,220.1
5319,199.3
5320,215.1
5323,198.3
5324,209.1
5328,206.3
5331,213.0
5335,208.8
5341,196.0
5342,173.9
5345,179.1
5346,195.8
5348,190.4
5349,226.0
5353,185.7
5354,196.0
5357,189.4
5358,191.7
5360,200.0
5361,182.8
5362,212.2
5365,183.1
5366,156.9
5367,164.7
5368,174.3
5370,168.4
5375,193.7
5378,214.0
5379,218.4
5381,174.1
5382,199.8
5383,173.8
5385,179.6
5386,199.4
5387,209.7
5389,226.3
5391,198.5
5395,199.2
5397,167.1
5403,183.1
5404,165.1
5409,156.7
5413,156.3
5415,216.6
5416,160.8
5421,177.4
5423,203.0
5424,203.4
5428,211.4
5429,189.6
5430,184.7
5431,216.5
5436,208.2
5438,224.0
5440,203.7
5442,224.9
5445,178.0
5447,202.9
5448,172.3
5449,158.4
5451,176.5
5453,196.0
5455,223.4
5456,161.1
5457,177.6
5460,157.2
5462,193.2
5463,197.4
5464,179.1
5465,220.9
5466,183.1
5467,216.7
5472,189.8
5475,158.4
5476,200.1
5478,216.6
5479,187.3
5480,179.6
5481,204.3
5482,177.4
5486,209.4
5487,204.0
5488,206.2
5490,206.3
5491,177.4
5492,156.8
5495,200.7
5496,207.1
5498,166.9
5499,193.3
5502,193.4
5503,172.8
5504,215.9
5505,158.2
5506,223.1
5507,227.5
5510,186.8
5512,223.9
5514,163.4
5515,226.8
5519,223.9
5522,196.2
5525,200.7
5527,165.0
5528,211.4
5532,223.5
5534,223.7
5536,215.6
5537,195.3
5538,226.0
5540,193.4
5542,214.8
5548,202.7
5552,217.7
5553,190.8
5556,185.0
5558,165.5
5560,156.3
5561,190.1
5563,182.2
5565,193.4
5567,201.2
5570,156.2
5571,200.3
5572,185.5
5576,223.4
5577,214.0
5578,187.0
5579,180.0
5580,190.6
5582,210.6
5583,202.9
5585,208.7
5586,225.4
5587,176.9
5588,217.0
5591,196.0
5597,178.3
5600,213.3
5601,178.1
5602,174.5
5603,180.5
5604,207.2
5606,178.9
5608,225.4
5609,203.3
5610,190.7
5613,200.5
5614,217.2
5615,216.6
5618,163.0
5619,159.7
5622,191.3
5625,170.1
5626,168.2
5627,208.8
5628,191.7
5629,225.9
5631,160.5
5632,186.2
5633,210.5
5637,210.8
5638,168.9
5639,159.2
5640,196.0
5641,206.0
5642,216.0
5644,209.6
5645,198.0
5647,208.0
5650,198.5
5652,193.1
5653,198.5
5654,169.9
5656,189.1
5657,169.7
5658,208.7
5659,214.3
5661,217.3
5662,178.4
5665,188.3
5670,217.0
5671,176.6
5672,199.8
5674,212.1
5675,191.5
5676,157.8
5678,206.3
5682,210.0
5683,194.5
5686,218.4
5689,211.8
5690,190.8
5691,178.7
5692,160.7
5693,225.7
5695,156.4
5697,216.3
5699,185.8
5700,161.5
5702,188.3
5710,210.5
5711,161.1
5712,189.9
5714,232.0
5715,158.5
5717,222.2
5718,196.1
5719,212.2
5721,181.7
5722,190.8
5725,173.2
5726,203.3
5728,216.6
5730,218.2
5731,198.7
5732,161.6
5736,181.3
5738,169.9
5740,193.4
5741,174.4
5745,199.6
5746,161.3
5750,213.2
5752,201.1
5753,192.6
5755,180.8
5756,195.2
5758,161.7
5760,209.0
5763,162.9
5764,220.5
5765,196.0
5766,188.5
5768,175.5
5770,213.7
5772,184.3
5775,182.3
5777,214.0
5780,199.4
5782,164.4
5784,184.7
5785,202.6
5789,215.1
5790,201.1
5793,156.2
5794,176.5
5796,198.3
5798,220.2
5800,213.7
5801,207.6
5803,185.7
5804,179.0
5805,178.4
5807,194.8
5811,226.9
5814,227.6
5815,221.7
5816,173.9
5821,222.5
5822,207.3
5824,166.8
5825,161.9
5826,194.9
5827,214.0
5829,205.0
5834,198.4
5835,184.3
5838,167.5
5839,196.0
5840,223.7
5841,208.7
5842,173.2
5843,182.8
5847,215.1
5849,195.9
5851,205.3
5852,176.1
5853,211.4
5855,226.0
5856,209.5
5857,203.5
5859,194.5
5863,156.9
5865,201.1
5868,184.2
5870,167.3
5871,206.2
5873,162.5
5874,220.9
5877,208.8
5879,176.3
5881,187.5
5884,199.2
5886,218.4
5890,190.8
5891,208.0
5893,180.7
5895,186.1
5900,170.4
5901,223.1
5902,180.5
5903,199.6
5904,189.7
5905,175.0
5906,157.5
5913,221.4
5914,221.7
5915,220.8
5919,210.9
5925,216.5
5926,191.1
5927,214.0
5933,192.4
5934,225.5
5935,196.2
5938,227.5
5940,190.8
5944,159.1
5945,168.1
5946,226.5
5947,207.5
5948,199.2
5949,200.3
5951,194.9
5952,208.8
5955,208.0
5959,205.9
5962,219.8
5963,176.3
5964,201.1
5965,172.0
5968,162.6
5970,205.0
5971,221.6
5973,214.4
5976,183.3
5977,208.8
5984,162.9
5986,194.7
5989,195.9
5990,196.0
5991,196.4
5993,180.7
5994,213.6
5995,173.3
5996,203.4
5997,164.0
5999,203.2
6000,158.3
6001,227.6
6002,185.7
6003,213.5
6004,204.4
6014,221.7
6017,167.4
6019,157.3
6021,172.3
6022,221.2
6024,204.8
6027,211.4
6028,190.3
6030,224.5
6031,182.2
6032,176.1
6034,190.6
6039,190.8
6041,206.3
6042,212.9
6043,218.2
6045,204.9
6046,204.9
6048,165.9
6050,202.1
6051,170.2
6052,214.0
6053,188.0
6055,160.6
6056,184.1
6058,161.3
6059,200.5
6060,180.4
6063,173.6
6064,175.6
6065,211.4
6066,219.1
6067,191.0
6068,183.9
6069,185.4
6070,218.8
6071,168.9
6073,179.5
6075,210.6
6077,203.7
6079,183.1
6081,156.2
6083,172.7
6086,157.0
6087,209.9
6089,185.7
6092,161.3
6093,194.5
6096,157.2
6097,182.9
6099,214.5
6102,180.5
6103,221.3
6105,156.4
6108,221.3
6112,193.2
6113,159.5
6114,216.6
6117,222.8
6118,159.7
6120,173.0
6122,184.5
6123,173.2
6127,203.7
6128,215.7
6129,182.7
6131,165.3
6132,194.2
6139,190.8
6142,202.2
6143,202.6
6147,186.9
6148,216.3
6149,200.9
6152,214.0
6154,198.3
6155,156.8
6157,171.6
6164,203.7
6165,159.2
6168,164.5
6169,167.9
6171,214.0
6173,173.1
6175,158.1
6176,198.5
6178,182.3
6179,157.7
6180,174.9
6185,167.4
6188,170.4
6190,188.3
6191,223.9
6194,210.5
6197,196.9
6198,206.1
6200,182.4
6201,217.7
6202,183.1
6203,197.4
6208,215.4
6211,225.8
6214,219.1
6215,159.0
6218,200.9
6219,194.4
6222,159.1
6223,218.1
6224,189.4
6226,201.1
6229,222.0
6230,224.2
6231,223.3
6234,203.6
6239,183.1
6240,174.6
6249,175.7
6252,219.1
6255,201.4
6257,224.5
6258,159.2
6260,176.6
6261,196.1
6262,199.6
6263,205.9
6264,216.6
6265,222.7
6266,172.2
6269,162.5
6271,196.1
6277,203.7
6284,201.4
6285,164.7
6286,195.5
6288,184.0
6289,190.8
6290,201.3
6291,194.1
6292,176.4
6293,216.4
6294,176.4
6295,179.8
6298,226.6
6300,167.3
6301,183.1
6311,168.1
6313,214.0
6314,213.2
6315,182.7
6316,164.9
6321,200.4
6322,159.8
6324,206.4
6327,203.7
6331,183.4
6332,172.9
6333,214.4
6334,163.4
6335,186.2
6339,190.8
6343,166.0
6346,195.0
6351,221.7
6353,158.2
6354,156.8
6355,188.3
6357,202.1
6359,210.6
6361,220.9
6362,185.2
6364,208.8
6365,165.4
6368,181.4
6369,227.6
6371,182.4
6372,182.3
6374,161.1
6375,224.8
6376,196.0
6377,205.0
6378,160.9
6379,172.6
6382,208.3
6386,224.5
6387,186.5
6388,214.2
6389,190.8
6390,178.8
6392,159.9
6394,193.9
6395,197.2
6396,182.9
6397,168.9
6398,177.8
6399,171.1
6400,198.5
6401,178.1
6402,188.3
6406,196.8
6407,160.1
6414,216.6
6416,183.0
6422,175.0
6424,209.7
6426,198.5
6430,171.4
6431,205.0
6432,179.0
6433,223.6
6435,222.1
6436,198.0
6438,183.1
6439,179.0
6440,189.1
6441,197.2
6442,208.9
6443,210.6
6444,223.1
6445,201.9
6447,194.3
6448,187.3
6452,219.1
6454,209.5
6455,177.6
6456,207.7
6457,197.8
6458,186.9
6460,184.0
6464,208.8
6465,164.9
6466,172.9
6467,219.4
6468,207.4
6473,191.6
6476,203.7
6479,201.2
6480,196.3
6482,184.5
6483,224.7
6485,182.9
6486,189.7
6487,211.6
6489,206.3
6490,225.9
6491,227.6
6493,206.0
6494,217.0
6495,213.7
6496,162.4
6499,175.1
6501,193.4
6504,217.6
6505,214.0
6507,163.2
6510,169.4
6511,157.8
6512,181.9
6513,211.4
6514,191.2
6515,171.6
6521,217.2
6523,166.3
6525,206.9
6526,196.0
6527,206.3
6528,171.3
6529,205.1
6531,171.1
6533,227.9
6534,185.2
6537,174.7
6539,185.7
6540,169.4
6545,196.4
6547,165.6
6548,173.3
6551,224.3
6552,167.8
6554,184.4
6555,213.9
6559,225.4
6561,183.1
6562,217.9
6563,214.0
6565,203.0
6566,174.6
6567,187.6
6568,222.1
6571,200.8
6572,207.1
6573,172.1
6576,193.4
6578,194.5
6579,180.3
6585,166.1
6586,165.8
6587,205.4
6588,157.6
6589,196.0
6590,162.8
6591,205.6
6596,156.0
6598,186.5
6599,169.6
6600,210.8
6601,188.3
6602,168.6
6603,176.1
6604,166.0
6608,225.2
6611,191.6
6614,208.8
6618,161.1
6622,198.6
6624,166.8
6626,193.4
6628,199.8
6630,213.6
6634,190.8
6635,215.0
6636,218.1
6637,179.6
6638,183.1
6641,175.3
6642,180.6
6644,220.6
6645,160.1
6647,222.7
6649,179.3
6650,196.9
6651,221.7
6654,199.9
6655,161.0
6656,195.7
6657,171.9
6658,158.1
6659,207.6
6660,184.3
6663,176.5
6664,206.3
6665,173.7
6666,204.5
6668,169.3
6670,210.6
6672,227.5
6674,208.2
6675,166.8
6676,188.3
6677,165.2
6679,188.4
6681,189.6
6685,170.7
6688,198.5
6690,161.4
6691,219.8
6696,192.4
6698,225.1
6700,224.8
6701,198.5
6705,184.9
6708,177.5
6711,190.4
6713,211.4
6714,222.6
6719,187.9
6722,170.9
6724,182.0
6725,173.1
6726,190.8
6729,213.4
6731,180.1
6732,178.5
6733,200.9
6734,213.3
6738,180.5
6740,165.7
6744,176.7
6746,208.4
6747,158.7
6748,190.1
6750,207.0
6751,219.1
6752,208.4
6753,165.5
6762,191.7
6763,211.4
6764,157.3
6765,202.7
6768,187.3
6771,212.3
6774,182.4
6775,196.0
6777,168.0
6778,188.6
6779,165.9
6781,197.0
6782,156.2
6786,222.7
6788,215.8
6789,203.7
6791,157.0
6794,158.9
6795,206.9
6798,169.7
6799,192.6
6800,226.7
6801,196.0
6803,201.7
6805,213.2
6808,224.0
6810,219.6
6813,203.7
6818,213.3
6820,224.1
6821,208.5
6822,176.4
6823,188.2
6824,178.7
6825,190.8
6830,191.0
6831,198.2
6838,188.3
6839,163.5
6841,222.6
6842,226.6
6844,206.3
6846,197.1
6847,190.9
6850,197.4
6851,224.3
6852,195.0
6853,176.0
6857,227.8
6860,212.9
6861,174.6
6862,221.8
6863,206.3
6867,192.4
6868,158.5
6872,209.3
6875,220.0
6876,188.3
6877,214.6
6878,157.0
6879,176.3
6882,206.6
6888,208.8
6890,203.7
6892,166.3
6894,186.0
6895,218.8
6896,177.4
6898,165.2
6900,198.5
6901,209.7
6903,226.2
6904,174.5
6905,183.4
6906,165.4
6908,167.3
6911,195.5
6913,208.8
6914,206.7
6915,219.4
6916,214.0
6917,161.4
6918,218.4
6920,163.5
6922,200.3
6923,196.5
6924,180.4
6926,196.0
6930,174.1
6933,156.3
6934,161.3
6935,205.3
6936,187.5
6937,206.3
6938,183.1
6939,222.2
6942,167.8
6944,221.5
6946,214.8
6947,226.0
6949,206.6
6950,221.7
6951,177.9
6952,191.8
6954,168.4
6956,220.0
6957,201.9
6959,180.6
6960,207.5
6961,209.7
6963,211.4
6968,206.1
6969,160.6
6971,193.0
6972,192.1
6973,166.2
6974,225.5
6975,196.0
6976,170.8
6977,193.9
6979,195.3
6983,190.8
6988,219.1
6990,179.7
6993,195.4
6995,217.0
6996,160.9
7000,193.6
7001,206.3
7006,183.7
7008,161.5
7010,208.7
7011,206.2
7013,201.1
7015,174.4
7016,202.3
7019,184.9
7021,189.7
7025,193.4
7026,226.5
7028,199.2
7035,226.0
7037,190.8
7038,225.7
7039,184.2
7040,210.2
7042,179.4
7043,186.8
7045,188.0
7049,175.4
7051,226.8
7052,211.8
7054,183.9
7056,219.6
7063,214.0
7066,195.0
7068,225.9
7069,217.7
7071,217.8
7072,188.0
7073,170.5
7074,213.9
7075,190.8
7080,159.7
7083,195.1
7084,197.3
7088,216.6
7089,166.1
7091,162.0
7093,184.9
7098,156.5
7100,206.3
7101,186.1
7102,181.7
7108,178.9
7109,188.4
7110,192.5
7112,198.5
7116,224.5
7118,179.8
7119,203.9
7125,193.6
7126,190.8
7130,184.7
7131,179.6
7132,210.6
7133,220.0
7135,181.3
7136,227.4
7137,168.4
7138,180.5
7139,189.9
7140,175.8
7142,156.5
7143,183.8
7145,188.1
7147,193.5
7148,214.3
7149,214.2
7150,211.4
7151,217.6
7152,177.0
7153,160.1
7154,161.1
7155,183.5
7158,174.4
7162,201.1
7165,163.7
7166,168.6
7167,174.5
7170,177.8
7171,160.9
7172,192.9
7174,200.0
7175,185.7
7176,223.2
7177,156.4
7178,213.7
7179,216.0
7180,170.5
7185,185.3
7186,194.5
7188,221.7
7192,186.7
7193,192.9
7196,172.8
7200,211.4
7203,178.9
7204,189.8
7208,159.0
7209,160.6
7210,157.4
7212,173.7
7213,198.5
7219,170.0
7220,219.5
7221,177.5
7222,223.4
7223,167.1
7225,190.8
7226,171.3
7229,202.3
7230,160.4
7231,159.3
7232,205.9
7234,208.7
7237,183.1
7239,194.9
7241,209.0
7245,172.1
7246,226.8
7248,211.9
7250,219.1
7254,176.0
7256,161.0
7257,175.4
7261,197.6
7262,198.0
7263,201.1
7264,187.2
7268,160.8
7269,199.7
7272,198.9
7274,218.5
7275,183.1
7276,222.2
7278,220.5
7282,219.2
7283,165.7
7285,175.6
7286,227.3
7287,219.1
7294,196.0
7296,163.9
7297,182.1
7299,199.9
7300,206.3
7301,193.9
7304,177.5
7305,221.8
7306,189.4
7308,181.5
7310,211.4
7311,210.1
7312,193.4
7315,191.4
7316,227.1
7317,226.1
7318,157.0
7321,179.2
7323,202.1
7324,224.6
7325,196.0
7327,197.3
7329,204.7
7330,220.0
7332,198.1
7334,201.2
7337,185.7
7338,195.5
7339,166.1
7340,226.7
7345,156.1
7346,207.6
7347,174.1
7348,166.6
7350,206.3
7351,218.8
7353,217.7
7356,213.7
7357,225.8
7359,181.5
7361,194.2
7362,193.4
7366,226.2
7367,166.1
7368,193.5
7369,200.0
7373,218.7
7374,185.7
7381,189.7
7382,216.8
7388,224.3
7389,167.1
7392,172.4
7393,196.6
7394,187.7
7395,189.1
7397,176.6
7399,187.4
7400,214.0
7401,182.1
7403,182.3
7409,224.3
7410,203.3
7412,196.0
7413,160.8
7415,220.8
7416,209.1
7417,227.5
7418,205.4
7419,208.0
7420,170.5
7421,192.1
7423,210.3
7425,193.4
7428,165.3
7430,199.7
7431,212.6
7434,193.4
7437,188.3
7446,184.5
7450,208.8
7451,193.0
7452,223.5
7454,163.6
7459,186.3
7461,173.6
7462,198.5
7463,211.2
7464,168.1
7466,220.2
7467,158.2
7470,202.3
7475,185.7
7476,208.0
7481,183.1
7484,200.8
7487,221.7
7488,176.2
7489,189.1
7495,216.4
7498,177.1
7499,208.8
7505,193.2
7507,163.1
7508,226.7
7510,169.9
7511,156.2
7512,193.4
7516,185.0
7517,216.7
7524,171.4
7525,203.7
7526,225.6
7529,221.9
7531,162.2
7533,162.6
7537,198.5
7540,214.5
7541,222.5
7542,213.5
7544,162.5
7549,211.4
7550,194.9
7554,166.8
7556,212.1
7558,219.8
7561,215.3
7562,196.0
7563,215.2
7567,196.5
7571,185.8
7574,180.5
7575,195.5
7576,216.2
7579,223.2
7581,222.8
7582,173.0
7583,189.1
7584,166.4
7585,203.1
7587,226.8
7589,164.6
7590,201.0
7591,224.1
7592,157.9
7595,166.9
7596,168.3
7597,189.9
7599,215.6
7600,216.6
7602,160.1
7605,207.0
7607,213.4
7608,226.5
7609,178.8
7612,198.5
7613,175.6
7615,213.6
7618,195.0
7619,201.9
7621,160.0
7624,208.8
7625,220.0
7626,176.2
7630,189.6
7634,188.2
7635,179.3
7636,198.5
7637,174.7
7638,201.2
7639,188.1
7640,191.7
7641,178.6
7643,198.7
7646,161.6
7647,214.9
7648,218.3
7649,194.9
7650,208.8
7653,205.4
7655,216.7
7656,209.9
7659,189.3
7660,160.8
7661,198.0
7662,190.8
7665,179.1
7666,199.4
7670,196.2
7672,177.8
7674,188.3
7675,192.7
7676,199.8
7677,207.3
7682,184.1
7684,185.2
7685,195.6
7686,192.4
7687,229.4
7690,195.6
7691,187.9
7692,170.8
7693,157.6
7694,167.2
7695,157.2
7697,190.5
7698,161.7
7699,214.0
7700,173.1
7701,184.7
7704,163.8
7706,164.2
7709,201.5
7711,193.4
7712,204.1
7715,158.0
7716,217.2
7717,209.2
7721,195.4
7724,214.1
7725,211.4
7729,163.2
7730,222.8
7733,202.6
7734,194.9
7736,202.3
7737,208.8
7738,217.0
7740,212.5
7742,163.1
7743,211.2
7744,214.7
7746,157.9
7749,214.0
7750,215.6
7754,156.5
7755,184.9
7758,207.5
7759,217.2
7761,196.0
7762,198.9
7764,218.9
7766,159.4
7768,198.2
7769,171.8
7772,212.1
7774,185.7
7777,198.4
7778,166.4
7783,195.8
7785,220.3
7787,221.7
7788,172.1
7789,221.2
7792,192.8
7793,222.9
7794,187.4
7795,177.9
7796,221.0
7798,222.3
7799,214.0
7800,173.5
7802,178.8
7803,186.3
7804,179.6
7806,192.8
7807,185.8
7808,193.3
7812,198.5
7814,208.5
7823,172.2
7824,221.7
7826,226.2
7828,180.4
7830,205.7
7832,157.0
7836,208.8
7839,191.1
7842,173.0
7844,163.3
7846,168.3
7849,206.3
7851,214.0
7852,220.7
7854,171.7
7855,179.2
7860,180.5
7862,193.4
7863,159.1
7865,216.8
7866,178.9
7868,204.7
7872,158.4
7873,165.1
7874,188.3
7875,162.7
7877,190.4
7881,199.5
7882,219.2
7884,172.0
7886,226.8
7891,175.7
7896,215.2
7897,175.0
7898,178.4
7899,221.7
7902,226.7
7903,194.7
7904,163.5
7906,161.5
7908,160.6
7910,219.9
7911,198.5
7912,224.5
7913,202.9
7914,206.5
7915,210.2
7916,223.4
7917,226.4
7918,213.1
7920,217.3
7922,170.3
7924,221.7
7925,194.6
7928,188.0
7930,179.3
7932,210.0
7933,215.0
7935,211.9
7937,214.0
7941,199.3
7942,209.5
7946,198.0
7948,187.5
7949,208.8
7950,218.8
7951,200.5
7952,194.7
7953,218.9
7956,166.2
7959,202.0
7960,177.8
7961,201.1
7962,212.0
7970,175.2
7971,186.7
7973,190.8
7974,177.0
7977,185.7
7978,190.1
7984,214.3
7985,157.8
7986,210.8
7987,224.3
7988,172.7
7989,211.6
7991,208.2
7993,186.8
7994,177.5
7995,157.6
7998,187.1
7999,216.6
8003,223.5
8008,200.1
8009,190.5
8010,210.6
8011,203.7
8013,192.4
8016,171.0
8017,164.6
8019,197.9
8020,191.9
8022,188.6
8024,234.6
8026,222.0
8029,199.3
8030,206.6
8031,166.6
8035,187.6
8036,221.7
8038,163.5
8040,184.3
8042,196.3
8043,209.5
8044,207.2
8045,165.8
8046,215.8
8047,179.9
8048,182.5
8049,206.3
8051,206.8
8053,177.9
8054,167.8
8057,215.2
8059,172.3
8060,177.6
8061,198.5
8062,183.1
8063,227.5
8065,182.8
8069,195.6
8074,193.4
8077,201.1
8078,174.3
8079,173.8
8080,187.2
8081,184.0
8086,224.3
8088,224.2
8089,221.5
8090,177.6
8091,213.2
8092,217.0
8093,207.0
8095,184.0
8096,208.4
8097,180.9
8098,208.8
8102,201.5
8103,181.7
8105,176.4
8108,161.9
8111,190.8
8112,201.2
8113,175.3
8115,223.1
8123,222.9
8124,224.3
8125,164.3
8128,160.6
8131,156.2
8132,156.9
8133,167.6
8134,167.9
8136,214.0
8137,193.0
8138,162.8
8142,196.6
8147,161.2
8148,208.8
8149,216.1
8150,176.6
8151,227.9
8153,172.4
8159,211.0
8161,203.7
8164,216.3
8166,204.1
8168,183.8
8169,220.0
8170,206.8
8171,174.4
8173,196.0
8175,196.5
8176,206.0
8180,214.4
8182,176.7
8184,209.0
8186,221.7
8187,165.2
8188,214.3
8191,217.9
8192,194.6
8197,176.8
8199,206.3
8200,201.9
8206,173.4
8208,170.5
8211,198.5
8213,223.3
8214,214.5
8218,186.6
8219,217.4
8220,181.0
8221,223.2
8223,232.0
8225,158.1
8227,208.3
8229,198.1
8231,206.9
8232,169.5
8236,219.1
8237,196.2
8238,169.6
8240,183.2
8243,189.1
8245,199.2
8247,183.2
8248,185.9
8249,203.7
8253,187.4
8255,161.6
8256,166.0
8258,178.6
8259,184.4
8261,201.1
8264,173.3
8266,168.5
8267,224.4
8268,158.3
8269,213.1
8270,216.4
8271,165.6
8273,193.4
8274,206.3
8276,171.9
8278,200.2
8280,195.2
8283,161.2
8285,227.2
8286,216.6
8287,208.2
8288,226.0
8291,195.9
8292,220.2
8295,191.2
8297,200.4
8298,206.3
8300,157.2
8302,190.2
8306,188.6
8307,161.2
8309,166.8
8310,198.5
8312,177.9
8313,214.6
8314,164.7
8315,177.2
8319,200.4
8320,171.2
8323,211.9
8324,234.6
8325,181.2
8327,189.0
8331,217.3
8334,221.4
8336,221.7
8339,187.3
8341,178.1
8342,218.5
8344,183.1
8345,159.8
8346,195.6
8347,173.7
8348,211.4
8351,210.1
8360,216.6
8365,183.3
8367,160.8
8370,198.1
8371,210.0
8372,208.9
8373,211.4
8374,202.3
8375,220.3
8377,201.6
8378,181.6
8379,210.6
8380,202.0
8383,191.0
8385,187.6
8386,224.3
8387,217.3
8390,174.9
8391,162.7
8396,199.8
8397,157.9
8398,208.8
8401,222.8
8402,225.7
8403,222.2
8404,195.4
8405,156.2
8407,168.9
8408,213.7
8409,180.7
8410,208.5
8411,193.4
8412,226.5
8413,215.9
8415,212.3
8416,175.5
8418,176.8
8420,205.2
8423,234.6
8425,219.0
8426,184.8
8427,166.1
8432,194.4
8434,194.6
8435,221.7
8436,197.2
8437,177.6
8438,210.4
8441,224.9
8443,160.8
8444,222.6
8446,175.9
8447,208.6
8448,206.1
8449,211.4
8451,182.9
8453,190.7
8455,197.8
8456,170.3
8457,181.7
8458,164.2
8460,206.2
8461,219.1
8463,198.4
8464,193.9
8465,189.6
8466,215.3
8467,171.4
8468,165.6
8471,205.6
8473,206.3
8476,176.8
8477,198.0
8478,176.5
8479,187.7
8485,219.1
8487,202.8
8489,186.6
8492,193.0
8494,159.7
8498,206.3
8499,194.0
8500,182.9
8502,159.7
8504,163.2
8506,206.2
8508,190.6
8510,201.1
8511,173.5
8517,178.5
8518,197.9
8521,179.4
8522,223.6
8523,237.1
8524,174.0
8528,187.2
8532,194.5
8534,168.3
8536,221.7
8538,163.5
8539,213.6
8541,191.0
8542,195.5
8543,195.5
8546,163.0
8548,206.3
8550,200.3
8551,185.2
8555,193.8
8556,186.5
8557,165.3
8559,210.8
8560,226.8
8561,216.4
8562,185.3
8563,195.4
8564,216.3
8567,166.3
8569,186.8
8572,221.7
8573,197.6
8577,170.3
8581,222.6
8583,207.9
8586,229.4
8587,182.8
8589,175.0
8590,206.9
8595,170.1
8596,185.1
8598,208.8
8599,159.8
8602,170.1
8606,169.3
8609,192.2
8610,198.5
8611,218.9
8613,226.3
8616,205.8
8617,180.1
8620,206.1
8621,204.6
8623,234.6
8626,221.9
8630,165.9
8632,176.8
8633,162.9
8635,224.3
8636,176.8
8638,167.0
8639,185.1
8640,190.6
8643,163.4
8644,161.4
8648,206.3
8650,179.0
8651,198.4
8652,166.2
8654,162.9
8660,226.8
8661,217.9
8664,186.6
8665,174.0
8666,217.1
8667,193.4
8669,165.3
8673,211.4
8674,217.4
8677,176.0
8684,158.3
8685,211.4
8686,179.0
8691,218.6
8693,198.3
8695,169.3
8697,198.5
8698,168.7
8703,182.8
8704,166.1
8705,158.0
8707,225.2
8708,209.2
8709,210.5
8710,193.4
8713,217.2
8716,164.2
8717,171.0
8719,194.5
8721,171.1
8722,197.5
8723,237.1
8726,169.9
8727,202.2
8728,182.2
8729,193.2
8732,224.8
8733,164.4
8735,221.7
8736,171.5
8743,173.5
8748,198.5
8750,199.0
8752,180.2
8755,217.9
8756,204.9
8759,180.0
8760,224.3
8761,171.6
8770,169.4
8771,184.8
8772,221.7
8774,211.6
8775,177.5
8776,187.9
8780,213.1
8782,168.5
8784,198.0
8785,219.1
8786,187.0
8789,169.9
8790,168.5
8791,159.9
8793,214.3
8794,224.5
8798,206.3
8799,173.8
8801,210.0
8806,201.8
8807,190.1
8808,221.2
8810,193.4
8811,215.1
8812,175.9
8813,197.2
8816,201.9
8819,182.0
8821,200.8
8822,229.4
8824,215.8
8826,181.6
8827,216.1
8829,162.6
8832,205.6
8833,227.8
8835,216.6
8836,226.7
8838,185.1
8840,214.6
8842,196.5
8846,160.8
8848,201.1
8849,191.1
8850,220.6
8853,225.2
8855,182.6
8857,173.7
8858,202.0
8859,160.4
8860,232.0
8861,222.0
8862,186.0
8866,163.6
8867,190.0
8870,227.5
8871,171.8
8872,214.0
8873,185.1
8874,197.9
8879,182.7
8880,176.8
8882,187.8
8883,227.5
8885,206.3
8888,175.5
8889,211.1
8891,187.3
8893,178.9
8894,172.8
8895,171.0
8896,197.8
8897,198.5
8898,205.6
8900,222.7
8902,165.2
8903,201.6
8907,211.1
8909,193.4
8911,195.7
8912,180.4
8921,174.0
8922,176.9
8923,229.4
8924,219.2
8926,206.9
8929,227.3
8932,191.6
8935,219.1
8937,198.7
8940,177.4
8942,180.4
8943,161.9
8944,202.1
8947,198.5
8958,218.2
8959,206.2
8960,229.4
8961,186.1
8970,170.1
8971,201.0
8972,219.1
8974,223.0
8975,179.3
8979,171.3
8984,203.5
8985,214.0
8986,185.6
8987,179.7
8990,209.9
8991,173.7
8993,197.6
8995,185.7
8996,163.3
8997,214.0
8999,208.6
9000,166.6
9004,196.7
9005,198.5
9007,173.0
9008,199.8
9010,201.1
9011,220.0
9012,195.3
9013,203.3
9015,185.9
9017,181.5
9019,172.2
9020,224.1
9021,162.0
9022,226.8
9024,184.3
9025,212.3
9026,203.2
9027,206.0
9029,162.4
9032,173.6
9034,211.4
9038,191.8
9041,171.0
9042,165.4
9045,160.2
9046,205.8
9048,201.1
9049,211.8
9050,211.7
9053,223.9
9054,175.7
9055,200.2
9057,214.6
9059,225.0
9060,237.1
9070,221.1
9071,157.4
9072,226.8
9076,220.5
9077,183.8
9078,175.8
9081,171.0
9082,165.5
9084,208.8
9086,164.8
9087,176.6
9088,212.4
9089,198.6
9090,177.4
9092,211.7
9093,184.6
9094,179.3
9095,176.0
9097,203.7
9101,166.4
9102,197.6
9103,215.9
9104,167.8
9107,216.7
9109,198.5
9111,177.4
9118,210.0
9119,170.8
9121,214.7
9122,226.8
9123,199.0
9124,189.1
9125,209.9
9126,198.1
9127,214.1
9128,201.4
9129,177.6
9130,171.5
9135,214.0
9138,215.1
9143,174.9
9147,201.1
9148,216.9
9149,161.8
9151,204.1
9157,169.1
9158,185.8
9159,234.6
9161,221.6
9162,207.7
9167,196.8
9168,162.4
9169,185.5
9171,221.7
9172,227.2
9173,157.8
9181,205.1
9182,195.7
9183,171.7
9184,171.9
9185,206.3
9187,164.0
9188,163.6
9190,184.1
9191,168.2
9192,212.5
9195,197.1
9196,164.2
9197,208.8
9198,211.9
9200,173.8
9201,199.3
9204,208.7
9207,158.4
9209,206.3
9212,210.3
9215,170.0
9216,172.7
9218,226.0
9220,171.5
9221,222.1
9222,224.3
9227,186.2
9228,190.7
9232,213.6
9233,224.9
9234,206.3
9235,175.7
9236,213.2
9238,176.3
9239,215.4
9240,195.3
9241,205.8
9242,162.4
9247,196.0
9248,160.5
9254,161.1
9255,187.3
9256,199.2
9257,158.7
9259,227.6
9260,234.6
9263,221.4
9267,162.6
9268,184.8
9269,226.2
9271,197.6
9272,226.8
9275,207.1
9276,203.7
9277,162.0
9278,157.8
9280,217.1
9281,203.2
9282,222.4
9284,206.3
9285,220.3
9290,158.8
9291,194.1
9292,215.8
9296,211.4
9298,186.0
9300,186.0
9302,164.6
9303,222.0
9305,227.9
9309,206.3
9311,209.9
9313,161.2
9314,200.7
9315,158.8
9316,177.0
9317,164.8
9318,216.9
9321,170.4
9322,224.3
9323,192.1
9324,209.5
9327,179.7
9330,195.9
9332,219.9
9333,227.7
9334,211.4
9335,171.1
9337,170.2
9338,186.6
9339,206.1
9340,196.7
9344,204.3
9347,201.1
9349,191.0
9351,223.6
9352,198.6
9356,170.8
9357,195.1
9358,160.2
9359,239.7
9361,179.3
9362,190.6
9364,217.6
9367,219.6
9368,212.9
9370,164.4
9371,224.3
9377,219.1
9383,212.4
9384,201.1
9386,163.0
9388,205.1
9392,222.7
9393,214.8
9395,227.7
9396,177.8
9397,216.6
9398,189.4
9401,218.5
9402,167.6
9404,223.2
9406,196.0
9408,203.2
9409,206.3
9410,176.8
9411,164.6
9412,216.5
9413,189.1
9415,201.5
9417,178.8
9418,221.4
9420,223.2
9421,219.1
9430,161.4
9431,222.9
9432,171.3
9433,187.4
9434,198.5
9436,217.1
9439,182.5
9440,183.4
9441,217.9
9443,169.5
9444,161.2
9445,195.9
9446,225.4
9447,188.3
9451,158.7
9454,201.9
9455,177.7
9457,225.9
9458,203.3
9459,226.8
9462,183.3
9463,212.3
9465,227.9
9466,168.2
9468,202.2
9469,164.6
9470,176.4
9472,219.1
9476,159.4
9479,207.1
9482,161.9
9484,201.1
9485,180.2
9486,179.9
9487,185.6
9488,203.8
9489,225.5
9492,169.4
9496,216.6
9497,160.8
9498,195.4
9500,214.6
9504,180.3
9505,227.9
9508,203.7
9510,168.6
9513,203.2
9514,209.3
9515,220.3
9516,156.1
9519,201.6
9522,211.4
9524,176.4
9525,207.9
9526,160.7
9527,206.9
9528,198.0
9530,199.0
9532,200.2
9533,193.5
9534,203.7
9538,221.9
9541,181.8
9546,196.0
9547,184.1
9549,176.3
9553,197.1
9555,224.4
9556,171.9
9557,160.2
9559,232.0
9562,182.6
9565,198.5
9567,201.3
9570,208.6
9571,216.6
9575,187.2
9576,181.0
9579,203.8
9580,184.9
9581,182.3
9582,212.0
9584,193.4
9585,177.3
9589,166.5
9590,227.3
9594,188.3
9595,208.2
9596,214.0
9597,188.8
9598,184.1
9600,165.6
9604,203.0
9606,185.2
9609,211.4
9612,157.9
9613,183.6
9616,156.6
9618,157.6
9619,159.1
9621,208.8
9622,177.2
9623,227.9
9626,222.3
9628,164.0
9629,172.0
9633,193.4
9638,227.1
9640,183.2
9647,180.5
9648,202.7
9649,225.2
9650,218.0
9652,174.8
9654,212.7
9656,192.9
9657,212.0
9659,216.6
9663,163.4
9666,156.4
9667,225.7
9671,208.8
9674,226.6
9675,185.7
9678,195.0
9679,160.2
9680,175.6
9681,226.0
9682,210.7
9683,193.4
9684,191.0
9685,194.6
9686,156.6
9687,185.4
9688,169.8
9690,207.8
9695,164.8
9696,216.6
9697,218.7
9698,203.5
9703,166.1
9704,166.3
9708,206.3
9710,166.7
9712,168.6
9713,167.2
9714,156.9
9715,176.0
9716,179.5
9717,167.2
9718,169.9
9721,198.5
9722,228.0
9725,198.6
9730,177.4
9732,156.1
9733,162.6
9734,188.3
9735,208.3
9736,195.9
9738,188.6
9739,213.8
9740,172.4
9741,220.1
9746,185.7
9748,163.3
9750,164.3
9758,221.7
9759,173.7
9762,204.0
9764,215.5
9765,224.1
9766,178.6
9767,178.9
9769,212.1
9771,211.4
9772,187.9
9773,166.5
9775,211.2
9777,194.2
9779,165.5
9783,215.4
9784,190.8
9785,213.0
9787,187.4
9789,164.5
9790,206.4
9791,203.9
9792,224.9
9793,196.1
9794,158.9
9795,210.7
9796,219.1
9797,193.7
9799,158.1
9801,222.7
9805,157.2
9807,161.2
9808,203.7
9809,220.4
9810,163.4
9812,176.7
9813,218.4
9814,223.9
9815,173.5
9817,161.6
9820,180.0
9821,196.0
9823,210.7
9824,212.6
9826,192.8
9829,221.3
9830,222.9
9831,174.9
9833,188.3
9837,189.8
9838,185.5
9839,188.7
9842,208.8
9843,201.3
9845,195.6
9846,180.5
9851,168.6
9852,202.2
9853,204.5
9854,222.7
9856,172.1
9858,183.8
9859,208.8
9862,210.4
9863,191.8
9864,221.7
9866,202.3
9869,225.7
9871,198.5
9873,204.5
9874,172.4
9875,196.2
9876,211.7
9882,204.1
9883,180.5
9884,163.0
9886,215.3
9887,200.7
9889,221.2
9890,188.0
9895,214.0
9897,223.0
9899,221.1
9902,215.2
9906,185.0
9907,197.5
9908,206.3
9909,179.0
9912,179.9
9914,179.3
9915,180.8
9917,191.5
9918,182.8
9921,198.5
9923,197.2
9927,206.2
9930,157.5
9931,210.7
9933,188.3
9934,169.4
9937,220.4
9938,156.0
9939,186.2
9941,225.5
9942,196.8
9946,178.0
9948,159.5
9954,177.5
9955,220.4
9956,193.4
9957,213.7
9958,206.3
9962,186.9
9963,183.2
9964,208.4
9966,184.0
9968,186.3
9969,173.3
9970,196.0
9973,188.6
9974,175.7
9975,188.0
9976,159.1
9977,184.7
9978,166.4
9979,185.8
9982,222.7
9983,186.1
9984,180.5
9985,196.3
9986,177.5
9987,220.7
9989,160.2
9990,181.8
9991,201.7
9996,214.0
9997,192.9
9998,170.0
10000,208.0
10001,200.3
10004,167.6
10006,200.1
10007,184.6
10008,201.1
10010,175.4
10013,189.1
10014,216.3
10015,217.9
10018,169.0
10019,213.8
10020,214.4
10021,180.5
10022,194.3
10028,204.6
10030,173.3
10032,166.1
10034,174.0
10035,206.3
10038,171.3
10039,192.9
10041,211.2
10042,175.7
10047,188.7
10048,165.1
10049,203.7
10050,164.0
10051,179.8
10052,173.8
10053,218.9
10059,199.2
10062,178.0
10076,211.4
10077,179.6
10078,180.3
10079,189.0
10080,216.9
10083,198.1
10084,158.1
10085,168.5
10086,191.9
10087,214.2
10088,157.1
10089,196.0
10090,176.0
10092,182.6
10093,160.4
10095,227.8
10096,171.3
10097,203.3
10099,200.7
10101,180.3
10102,172.8
10105,199.2
10106,181.8
10107,223.0
10108,217.1
10110,179.2
10111,194.7
10112,214.4
10114,193.8
10115,172.3
10117,208.8
10119,176.1
10121,221.6
10122,166.1
10126,187.3
10127,169.2
10130,193.4
10134,219.5
10136,200.4
10137,162.5
10138,167.4
10140,190.9
10141,224.5
10142,199.2
10143,175.4
10145,215.7
10147,157.9
10152,162.3
10153,189.4
10154,222.8
10155,168.7
10156,164.6
10157,203.7
10159,205.3
10162,198.5
10163,220.8
10168,183.5
10170,180.5
10173,171.1
10174,217.8
10175,216.1
10176,184.5
10178,227.0
10179,215.0
10180,210.1
10183,225.9
10184,172.8
10185,164.7
10186,172.6
10191,167.3
10192,159.3
10193,194.3
10195,223.5
10197,181.8
10198,203.7
10203,169.3
10206,159.2
10207,162.9
10209,198.1
10211,178.0
10213,163.6
10215,173.2
10216,173.5
10217,182.9
10218,172.2
10219,199.5
10221,162.1
10224,170.2
10225,160.4
10227,160.2
10230,157.6
10234,207.0
10235,202.7
10237,190.8
10238,187.0
10239,183.1
10242,169.3
10245,180.5
10246,207.5
10247,204.7
10248,206.4
10251,160.6
10252,175.4
10253,209.3
10256,181.5
10257,199.2
10261,156.2
10262,188.4
10264,227.8
10265,180.5
10269,214.5
10271,166.3
10274,156.0
10276,213.2
10277,180.8
10278,188.3
10282,213.9
10283,171.6
10285,209.5
10288,162.0
10290,183.7
10291,201.2
10292,180.5
10296,189.5
10297,212.3
10299,211.3
10300,176.5
10302,183.1
10305,183.1
10307,187.8
10308,176.7
10314,173.6
10315,156.9
10316,209.3
10317,200.3
10318,224.0
10319,180.5
10321,181.4
10322,204.8
10330,206.3
10331,163.5
10333,190.8
10336,161.8
10338,188.5
10339,191.9
10341,225.8
10342,207.2
10343,180.5
10345,180.8
10346,198.5
10347,203.4
10348,202.7
10353,210.7
10355,160.8
10358,157.9
10359,183.1
10366,197.4
10369,195.9
10371,215.1
10373,198.5
10375,202.7
10379,190.3
10380,160.0
10382,203.7
10383,213.4
10384,201.0
10386,167.2
10387,196.0
10388,173.7
10390,204.6
10392,184.1
10393,201.1
10396,204.9
10399,187.8
10400,180.5
10401,183.8
10403,215.5
10404,201.5
10407,170.7
10408,173.7
10409,166.9
10412,205.2
10414,219.1
10415,164.9
10417,181.6
10419,167.2
10420,218.6
10421,183.3
10422,201.8
10423,207.9
10427,201.1
10428,202.6
10431,182.5
10436,171.9
10437,191.9
10439,162.0
10440,172.8
10441,216.9
10444,199.7
10445,169.9
10447,158.9
10448,223.6
10449,173.6
10450,215.8
10451,211.6
10452,173.7
10454,210.2
10455,206.3
10456,196.7
10457,206.2
10459,218.9
10464,206.6
10466,161.3
10468,193.4
10474,166.3
10476,187.5
10477,199.2
10479,201.1
10481,175.4
10483,217.3
10490,183.4
10491,171.0
10493,225.9
10494,206.3
10496,210.4
10499,194.5
10501,174.6
10503,191.3
10504,195.9
10508,213.7
10509,185.7
10510,191.8
10511,180.7
10512,161.2
10513,227.0
10514,220.5
10516,222.2
10518,166.0
10520,162.8
10522,165.1
10524,212.1
10525,204.0
10527,158.2
10528,183.9
10529,181.4
10532,206.4
10533,184.3
10534,169.2
10535,196.0
10537,188.0
10538,213.1
10539,171.9
10541,219.9
10542,160.6
10546,166.4
10547,169.2
10549,180.5
10551,176.1
10552,223.9
10553,171.9
10555,214.2
10556,173.9
10557,224.4
10558,182.3
10561,184.2
10562,170.2
10564,223.0
10565,183.8
10567,189.8
10569,185.6
10573,194.1
10574,192.8
10576,198.5
10577,198.4
10578,167.5
10579,176.1
10580,213.8
10581,176.7
10583,182.5
10586,164.7
10590,178.0
10595,178.1
10597,201.0
10598,178.7
10599,225.0
10600,197.7
10601,225.9
10603,167.7
10606,186.2
10615,183.6
10616,196.0
10617,222.9
10619,217.8
10620,166.3
10621,204.4
10622,218.4
10623,211.1
10624,210.0
10625,219.1
10627,207.2
10629,168.9
10630,190.8
10633,224.0
10636,209.3
10638,206.6
10639,200.2
10640,198.1
10641,171.5
10642,205.3
10643,175.4
10644,188.3
10645,166.0
10646,165.4
10647,163.9
10648,187.5
10649,212.3
10653,182.7
10657,193.4
10658,156.3
10660,166.6
10662,170.1
10664,220.3
10665,189.2
10666,226.8
10670,205.6
10671,188.3
10674,217.5
10676,204.1
10680,206.3
10684,198.5
10686,176.7
10689,180.8
10690,191.5
10691,196.8
10693,217.8
10697,193.4
10700,165.9
10701,164.4
10702,193.4
10703,206.3
10705,159.7
10709,157.7
10711,172.6
10712,206.3
10713,200.0
10714,165.6
10720,177.1
10721,196.0
10722,216.5
10723,223.9
10725,203.7
10726,224.2
10728,211.7
10730,169.9
10731,202.4
10732,219.4
10736,205.9
10737,222.7
10738,190.8
10739,206.3
10740,175.4
10741,160.6
10744,222.4
10745,191.2
10749,211.1
10751,188.1
10752,219.1
10755,184.5
10757,185.3
10759,171.8
10762,166.1
10763,218.1
10764,226.5
10765,219.1
10769,193.5
10770,170.4
10771,164.1
10774,227.2
10776,219.6
10777,215.4
10779,193.4
10780,157.9
10786,224.3
10791,159.5
10792,221.7
10794,219.9
10795,204.7
10796,177.0
10798,222.1
10800,165.1
10803,214.8
10805,211.7
10806,208.8
10808,218.6
10810,170.7
10813,227.5
10814,171.3
10816,217.1
10817,204.7
10818,183.4
10819,188.3
10822,224.2
10823,192.7
10827,223.6
10830,205.8
10832,226.8
10835,199.6
10839,191.9
10841,209.3
10845,162.2
10847,206.3
10849,170.9
10852,156.6
10856,180.2
10860,185.7
10863,204.8
10864,199.7
10865,176.6
10866,187.3
10867,222.0
10868,165.6
10869,196.5
10872,182.7
10873,221.7
10878,186.2
10881,196.9
10882,216.0
10883,164.2
10885,169.5
10886,174.8
10887,203.7
10888,182.6
10889,218.4
10890,221.4
10891,223.0
10894,182.9
10895,215.4
10896,225.8
10897,219.0
10899,161.6
10900,188.3
10905,220.7
10908,177.0
10910,163.9
10911,180.8
10912,220.8
10914,219.1
10915,207.5
10916,220.4
10918,202.2
10919,194.9
10921,159.5
10922,224.5
10926,208.8
10928,193.4
10930,197.5
10932,210.5
10935,208.9
10939,176.6
10941,180.5
10943,201.9
10944,160.4
10950,160.4
10954,216.6
10955,173.4
10957,181.1
10958,183.7
10959,192.6
10960,161.5
10961,171.4
10962,179.8
10963,193.6
10968,201.1
10973,203.1
10974,175.8
10977,202.5
10979,190.4
10981,189.0
10982,201.1
10983,181.4
10985,159.6
10989,159.0
10990,202.0
10991,163.4
10993,185.0
10995,214.0
10996,223.1
10998,183.5
10999,188.2
11000,191.1
11005,214.7
11006,195.5
11009,198.5
11011,158.6
11013,225.3
11016,199.8
11018,167.1
11019,189.3
11020,221.7
11021,163.4
11022,203.7
11026,220.6
11027,194.0
11030,196.2
11031,206.6
11033,190.8
11034,163.4
11035,211.4
11036,162.7
11037,182.3
11040,222.8
11046,186.5
11049,214.0
11050,213.5
11051,226.4
11052,164.1
11053,197.0
11055,189.8
11059,215.9
11063,216.6
11064,187.6
11066,197.7
11068,207.3
11070,170.5
11076,214.0
11077,170.3
11078,185.8
11079,190.3
11082,159.0
11084,179.1
11085,158.0
11088,225.8
11089,229.4
11091,194.6
11092,183.0
11093,174.4
11095,202.3
11096,160.8
11100,181.0
11101,179.6
11102,206.8
11103,232.0
11104,195.3
11111,173.8
11112,224.5
11113,227.1
11114,197.7
11115,198.7
11116,210.8
11117,216.6
11121,167.7
11125,167.5
11128,184.8
11130,244.8
11133,166.2
11138,189.7
11140,211.9
11142,190.7
11143,196.3
11144,229.4
11149,160.8
11153,179.8
11157,206.3
11159,214.6
11162,222.9
11164,186.8
11168,190.9
11170,247.4
11172,218.6
11173,156.3
11177,219.0
11178,170.6
11180,166.9
11184,193.1
11185,242.3
11186,170.7
11187,220.9
11188,189.3
11189,190.5
11190,183.7
11191,198.7
11192,214.4
11194,172.0
11195,178.8
11198,221.7
11199,201.9
11200,214.4
11201,207.1
11204,167.9
11206,165.1
11211,257.7
11212,193.3
11214,223.9
11217,186.7
11218,225.7
11219,156.3
11220,195.2
11221,214.9
11222,223.8
11223,156.6
11225,237.1
11226,222.0
11227,222.5
11228,165.0
11230,208.0
11234,156.6
11235,188.9
11236,215.7
11238,221.7
11240,196.0
11241,207.5
11242,168.0
11245,190.8
11250,190.2
11252,265.4
11253,188.8
11256,209.8
11258,210.4
11261,164.7
11263,210.7
11265,177.1
11266,239.7
11268,179.0
11270,205.9
11274,190.6
11275,192.3
11277,184.1
11278,156.1
11279,229.4
11282,199.4
11283,156.6
11284,221.3
11285,166.5
11286,159.5
11288,166.2
11289,217.7
11290,166.1
11292,265.4
11294,177.3
11304,176.9
11305,244.8
11306,171.6
11315,204.8
11316,159.7
11317,209.2
11319,190.8
11320,255.1
11324,215.2
11328,203.7
11331,227.0
11333,286.0
11335,162.8
11337,200.6
11338,222.8
11341,207.3
11344,186.8
11345,164.7
11346,270.6
11347,197.7
11348,201.4
11349,163.8
11352,182.3
11353,199.9
11355,181.2
11356,184.7
11357,211.4
11358,185.3
11359,158.9
11360,278.3
11362,199.9
11364,205.1
11365,193.7
11366,172.9
11368,176.7
11374,298.9
11378,175.2
11380,157.3
11383,207.4
11384,167.0
11387,301.4
11388,223.4
11391,216.5
11392,224.0
11394,227.0
11396,183.4
11397,207.3
11401,311.7
11403,170.1
11404,189.0
11406,170.4
11413,206.0
11414,309.2
11415,165.2
11420,162.4
11421,161.5
11422,174.6
11423,226.9
11424,206.6
11426,189.0
11427,324.6
11429,182.1
11431,176.5
11432,204.4
11434,186.3
11436,210.9
11439,180.1
11440,212.8
11442,334.9
11443,198.2
11444,161.9
11446,224.0
11448,158.7
11452,206.6
11454,159.2
11455,329.7
11457,184.6
11460,215.7
11462,166.9
11466,156.6
11468,368.3
11469,192.3
11470,165.7
11471,181.1
11472,197.2
11473,171.0
11478,174.8
11481,189.7
11482,358.0
11483,180.2
11484,188.8
11489,196.1
11490,217.5
11492,171.9
11493,176.8
11495,337.5
11496,192.0
11499,170.9
11501,191.4
11502,162.4
11503,169.5
11504,176.4
11505,185.0
11508,197.0
11509,386.3
11514,214.9
11515,183.7
11516,225.9
11523,370.9
11531,207.2
11533,222.5
11534,226.9
11535,183.9
11536,363.2
11537,176.4
11538,215.9
11542,214.5
11543,157.7
11544,171.0
11545,223.9
11547,224.4
11549,417.2
11550,205.9
11552,214.8
11553,185.4
11554,182.3
11557,212.1
11563,388.9
11564,166.2
11566,184.3
11568,180.0
11571,217.8
11572,198.6
11575,168.0
11577,376.0
11578,207.9
11581,204.2
11582,176.9
11584,158.8
11587,158.5
11588,219.4
11590,437.8
11592,204.6
11594,166.2
11596,195.3
11597,203.8
11598,162.2
11599,204.0
11601,183.1
11602,157.3
11603,406.9
11605,162.2
11606,157.7
11608,211.1
11609,176.1
11610,215.3
11611,191.7
11612,164.2
11613,224.7
11616,170.6
11617,448.1
11619,160.1
11622,202.4
11625,208.2
11626,227.2
11630,525.2
11634,179.1
11635,186.3
11636,203.2
11637,171.6
11638,199.1
11639,210.9
11640,220.6
11641,214.5
11643,162.4
11644,494.4
11645,160.2
11646,208.0
11653,198.4
11654,193.9
11655,198.9
11658,520.1
11661,172.9
11662,195.8
11665,193.5
11670,208.4
11671,576.7
11672,214.3
11673,178.3
11675,215.3
11680,225.6
11684,538.1
11687,168.5
11689,202.3
11690,224.3
11694,180.2
11695,224.5
11697,160.6
11698,571.5
11699,195.2
11700,223.9
11701,210.4
11704,201.0
11706,159.6
11707,209.3
11708,159.6
11710,174.9
11712,602.4
11713,171.9
11714,187.9
11716,186.6
11717,173.5
11718,186.1
11721,168.3
11724,222.0
11725,569.0
11726,157.8
11731,212.8
11732,161.9
11733,226.9
11736,204.6
11738,186.9
11739,623.0
11742,160.8
11745,217.4
11746,218.3
11749,197.2
11750,212.1
11752,625.6
11753,220.4
11754,226.7
11756,211.4
11757,217.0
11758,218.8
11761,221.6
11762,171.9
11764,227.5
11765,610.1
11766,218.1
11767,162.4
11768,226.5
11772,205.0
11773,224.2
11776,204.6
11778,209.4
11779,156.6
11780,643.6
11782,200.1
11783,191.8
11785,170.6
11786,188.2
11787,192.3
11793,628.1
11795,226.5
11796,162.8
11799,198.1
11800,165.0
11801,178.2
11803,204.0
11804,199.7
11806,648.7
11816,190.2
11817,185.4
11820,656.4
11821,218.2
11823,202.6
11825,210.5
11826,163.5
11827,214.5
11830,186.8
11833,635.9
11836,205.7
11837,163.1
11838,191.7
11842,184.7
11847,679.6
11851,220.7
11853,203.4
11854,195.1
11856,225.0
11860,659.0
11862,185.5
11863,173.0
11865,195.2
11867,221.2
11868,204.0
11873,157.8
11874,638.4
11875,208.5
11876,184.5
11881,211.9
11882,202.1
11883,189.1
11884,184.9
11886,198.6
11887,700.2
11890,169.3
11891,187.1
11892,188.0
11893,215.8
11895,193.1
11897,197.0
11899,205.5
11900,656.4
11901,188.2
11902,184.6
11903,224.4
11909,227.2
11911,179.4
11914,169.5
11915,633.3
11917,222.0
11918,199.4
11920,220.2
11921,194.7
11922,199.9
11925,189.4
11926,197.8
11927,173.4
11928,695.0
11930,178.9
11931,194.6
11933,165.8
11934,180.6
11935,190.3
11936,189.5
11940,187.2
11941,648.7
11942,226.2
11943,216.2
11948,183.4
11949,157.8
11950,216.4
11952,221.7
11953,182.6
11954,209.4
11955,633.3
11956,157.8
11962,158.1
11964,161.2
11965,207.2
11968,684.7
11970,223.3
11974,165.0
11977,187.7
11978,220.2
11979,212.2
11981,179.7
11982,625.6
11984,195.7
11985,169.6
11986,161.0
11987,215.3
11988,198.5
11991,224.3
11993,181.4
11994,184.5
11996,615.3
11997,213.7
11998,194.5
11999,187.8
12002,202.7
12006,216.6
12007,178.2
12008,186.9
12009,661.6
12013,160.0
12015,202.9
12019,211.7
12021,156.3
12022,607.6
12024,199.4
12025,174.9
12027,198.8
12030,202.0
12036,602.4
12038,193.6
12040,188.2
12043,216.1
12045,191.4
12046,202.0
12049,227.5
12050,628.1
12053,201.1
12055,202.3
12056,211.7
12059,198.5
12063,566.4
12064,157.3
12065,163.3
12067,219.2
12070,180.5
12075,156.9
12076,202.3
12077,561.3
12081,184.2
12082,201.0
12089,191.5
12090,561.3
12092,168.3
12094,210.3
12096,157.7
12099,203.6
12102,199.3
12103,520.1
12106,166.7
12107,169.0
12111,172.3
12112,169.6
12118,520.1
12120,199.5
12121,215.1
12125,201.6
12128,157.1
12131,502.1
12134,168.1
12135,159.0
12136,212.3
12140,191.9
12141,170.1
12142,223.7
12144,486.7
12145,214.5
12146,212.6
12148,221.1
12151,202.9
12152,186.5
12153,174.7
12154,214.0
12156,188.5
12157,496.9
12161,173.2
12163,224.1
12165,208.9
12166,176.8
12168,157.8
12170,214.2
12171,468.6
12172,191.6
12174,212.3
12175,162.6
12177,202.2
12178,176.0
12182,184.2
12184,203.8
12185,473.8
12190,199.0
12192,220.9
12196,204.8
12198,455.8
12200,221.4
12201,174.4
12202,207.9
12207,195.1
12208,191.5
12209,171.0
12212,419.8
12213,202.5
12215,174.2
12216,182.8
12220,174.3
12225,448.1
12226,208.2
12227,176.2
12231,203.2
12233,220.5
12234,226.2
12236,203.7
12237,186.2
12238,222.8
12239,430.1
12241,193.0
12242,204.0
12243,218.8
12244,192.5
12246,212.6
12252,196.4
12253,394.0
12257,217.6
12258,203.6
12260,222.7
12262,203.2
12263,224.0
12266,432.6
12268,201.4
12269,217.5
12271,215.9
12272,171.5
12277,226.5
12279,394.0
12280,215.8
12281,193.3
12282,173.3
12283,158.1
12286,203.7
12287,189.2
12288,182.3
12290,189.9
12291,222.6
12292,220.9
12293,365.8
12294,176.9
12295,167.5
12300,219.6
12307,404.3
12308,185.4
12309,213.9
12311,196.4
12315,203.3
12316,202.7
12317,177.7
12319,218.7
12320,368.3
12322,208.5
12328,227.8
12330,205.7
12334,342.6
12337,218.4
12338,158.3
12341,157.7
12342,208.1
12343,178.0
12344,213.6
12345,182.0
12347,373.5
12348,207.9
12350,198.9
12353,194.3
12356,184.9
12358,167.9
12359,215.2
12360,332.3
12361,159.7
12362,170.2
12363,168.4
12365,227.0
12368,199.5
12370,170.1
12372,159.3
12374,189.7
12375,319.4
12377,172.4
12379,209.2
12380,221.3
12382,216.8
12384,198.5
12385,175.4
12388,350.3
12389,212.8
12392,180.9
12395,201.3
12397,205.4
12399,173.4
12401,311.7
12402,222.6
12405,160.6
12409,165.9
12410,196.3
12412,181.3
12413,181.5
12414,301.4
12415,204.7
12418,205.6
12419,201.8
12420,177.6
12426,180.7
12428,327.2
12430,203.4
12433,225.1
12434,162.8
12436,171.1
12438,172.3
12440,160.7
12441,221.4
12442,298.9
12443,199.0
12445,211.6
12446,205.4
12451,205.3
12452,215.4
12453,210.0
12455,306.6
12458,200.7
12459,215.9
12462,179.8
12463,161.7
12464,208.0
12466,221.2
12467,164.0
12468,173.2
12469,314.3
12471,181.4
12472,158.1
12473,227.6
12474,168.0
12475,181.8
12476,219.7
12479,214.8
12480,166.7
12481,187.3
12482,296.3
12483,204.6
12485,221.2
12489,214.0
12490,180.8
12491,205.8
12493,193.7
12495,304.0
12501,191.7
12502,194.1
12503,195.9
12504,204.7
12505,181.1
12510,301.4
12511,180.6
12512,161.8
12515,201.5
12517,187.1
12520,159.0
12521,199.5
12523,306.6
12524,221.4
12526,161.8
12528,172.7
12530,162.8
12532,190.3
12534,220.9
12535,177.9
12536,309.2
12542,215.7
12543,178.5
12544,205.3
12545,205.6
12546,206.3
12548,222.5
12550,288.6
12551,186.1
12555,190.1
12559,195.2
12563,304.0
12565,163.8
12567,188.8
12572,173.8
12574,174.0
12577,301.4
12580,162.9
12581,216.7
12582,216.9
12587,204.1
12588,215.8
12591,288.6
12595,183.0
12598,186.5
12600,208.0
12602,218.6
12603,168.0
12604,322.0
12609,186.6
12610,219.6
12611,168.5
12612,186.6
12614,193.0
12615,193.9
12616,192.8
12617,304.0
12618,212.4
12621,187.8
12622,167.5
12623,198.4
12624,223.2
12630,186.5
12631,278.3
12633,172.9
12636,199.5
12637,187.1
12638,157.5
12639,216.8
12640,222.5
12641,199.0
12642,224.4
12643,187.4
12645,314.3
12648,191.6
12649,160.3
12651,180.2
12652,207.3
12657,207.9
12658,293.7
12659,215.1
12662,194.9
12665,222.1
12669,165.0
12670,204.8
12671,208.1
12672,275.7
12673,187.7
12674,204.7
12677,163.2
12678,168.5
12679,210.8
12682,176.2
12685,314.3
12686,172.5
12687,211.8
12688,222.2
12689,194.2
12695,158.8
12698,283.4
12699,192.1
12700,217.2
12701,162.5
12707,177.0
12709,167.0
12710,166.5
12711,199.8
12712,265.4
12713,173.4
12716,177.4
12717,159.3
12718,204.9
12722,195.8
12723,212.6
12724,173.1
12725,173.7
12726,304.0
12729,165.5
12730,182.1
12733,182.7
12734,183.3
12735,169.3
12737,199.9
12739,278.3
12740,163.9
12742,179.8
12743,198.5
12744,209.9
12746,201.3
12747,170.0
12748,162.1
12749,217.3
12750,170.6
12751,177.5
12752,262.9
12753,187.4
12756,200.3
12759,172.2
12761,213.3
12762,219.8
12764,205.4
12766,293.7
12768,217.6
12769,203.8
12770,198.1
12773,190.8
12774,204.8
12775,163.7
12776,157.1
12778,166.6
12779,198.1
12780,262.9
12785,224.3
12788,223.4
12789,199.6
12793,257.7
12794,184.1
12801,212.3
12803,180.5
12804,160.6
12805,188.5
12806,217.7
12807,291.2
12808,192.7
12811,216.6
12812,166.2
12813,200.2
12814,209.5
12815,208.6
12818,191.2
12819,215.0
12820,268.0
12822,167.2
12824,163.1
12833,265.4
12837,195.6
12838,184.6
12839,220.8
12842,212.7
12844,187.9
12845,204.9
12846,187.3
12847,190.9
12848,275.7
12849,211.6
12851,181.8
12852,196.7
12855,205.1
12856,191.1
12859,187.8
12860,177.0
12861,262.9
12862,217.2
12863,209.3
12864,216.5
12866,161.8
12867,218.2
12869,160.1
12871,175.7
12873,159.7
12874,275.7
12877,214.2
12879,168.8
12880,165.4
12884,202.5
12885,209.5
12888,270.6
12892,193.5
12893,196.4
12897,196.0
12899,158.5
12901,273.1
12904,171.3
12907,223.7
12909,201.9
12915,275.7
12916,219.4
12917,168.2
12919,178.8
12923,184.8
12925,210.8
12926,159.4
12929,260.3
12932,202.7
12933,159.4
12934,156.6
12936,212.2
12938,212.8
12941,175.7
12942,280.9
12944,205.3
12946,189.1
12947,181.1
12949,201.0
12950,194.6
12952,208.1
12953,173.3
12955,280.9
12959,186.5
12960,192.4
12966,159.2
12968,260.3
12972,220.0
12973,215.8
12974,203.9
12976,188.1
12978,161.2
12980,218.7
12983,288.6
12985,178.6
12988,173.5
12989,176.2
12990,160.3
12991,195.3
12996,270.6
12997,167.5
13000,156.2
13003,172.9
13004,203.3
13005,168.2
13007,213.3
13008,168.5
13009,247.4
13010,211.5
13013,209.3
13015,205.3
13016,161.5
13019,210.2
13022,183.8
13023,286.0
13026,164.8
13028,212.1
13031,185.6
13033,185.9
13035,156.7
13036,194.7
13037,273.1
13038,204.7
13039,205.0
13042,202.7
13044,206.5
13049,227.3
13050,247.4
13054,209.2
13057,199.2
13058,189.5
13060,192.7
13063,206.9
13064,283.4
13067,202.7
13070,186.8
13077,257.7
13078,169.3
13081,159.1
13084,181.5
13086,161.8
13090,242.3
13094,206.3
13095,163.2
13096,159.6
13098,190.1
13100,156.6
13101,164.2
13102,173.4
13105,278.3
13106,196.4
13107,218.7
13108,158.0
13112,203.1
13113,194.4
13115,199.7
13118,247.4
13120,163.5
13121,171.6
13123,156.5
13125,182.7
13128,211.1
13131,229.4
13133,219.5
13134,198.1
13135,161.8
13136,175.1
13138,202.3
13142,182.1
13144,223.3
13145,265.4
13147,186.3
13149,190.0
13153,200.4
13155,180.8
13156,184.0
13157,164.3
13158,244.8
13160,169.4
13161,186.8
13162,161.6
13165,187.6
13166,208.9
13168,214.4
13169,205.5
13170,204.7
13171,192.0
13172,237.1
13175,210.0
13179,216.9
13180,173.3
13181,181.5
13182,163.7
13183,209.4
13186,257.7
13192,211.1
13193,183.5
13195,211.9
13198,195.2
13199,234.6
13207,223.7
13208,182.8
13209,191.6
13211,189.0
13212,237.1
13214,170.1
13216,216.9
13218,193.8
13220,209.8
13222,215.3
13223,159.4
13225,250.0
13226,208.5
13227,171.7
13230,203.2
13232,207.7
13238,224.8
13239,204.0
13240,244.8
13245,225.2
13246,177.7
13247,212.7
13248,219.8
13249,168.7
13253,247.4
13255,186.5
13256,208.4
13257,156.1
13258,224.5
13261,164.0
13266,239.7
13267,214.0
13270,186.0
13272,163.0
13274,177.5
13280,244.8
13282,201.1
13283,163.4
13284,169.4
13285,192.8
13286,164.1
13287,184.6
13288,194.3
13290,186.3
13293,250.0
13294,219.9
13297,185.9
13298,190.5
13299,216.6
13300,184.0
13301,183.2
13302,226.3
13305,183.9
13307,232.0
13309,192.8
13310,190.8
13312,157.6
13313,183.2
13317,196.2
13318,225.2
13321,255.1
13322,156.2
13323,176.0
13326,171.8
13328,205.2
13334,247.4
13337,222.3
13339,172.4
13341,208.5
13342,205.7
13347,224.3
13353,161.7
13354,180.8
13356,226.2
13361,257.7
13362,209.8
13363,166.4
13364,224.8
13367,227.1
13368,198.8
13370,203.6
13374,168.1
13375,257.7
13380,223.3
13381,183.6
13382,199.1
13383,176.2
13384,159.1
13385,175.0
13388,226.8
13391,183.2
13392,223.4
13397,166.5
13399,162.8
13401,195.1
13402,265.4
13403,168.3
13409,193.0
13410,176.2
13411,164.9
13415,242.3
13416,169.9
13417,162.3
13419,164.2
13420,206.1
13422,211.6
13426,224.1
13428,221.7
13432,202.9
13433,217.1
13439,190.6
13441,204.8
13443,260.3
13444,193.9
13446,208.5
13447,216.2
13448,193.5
13450,174.1
13451,197.5
13454,220.4
13456,239.7
13458,197.9
13460,188.3
13461,199.2
13463,178.7
13469,224.3
13477,222.9
13480,165.7
13481,191.3
13482,163.9
13483,257.7
13485,195.3
13488,185.5
13489,180.2
13491,186.1
13495,193.2
13496,229.4
13497,162.8
13501,200.6
13502,203.7
13510,214.0
13512,227.6
13513,220.2
13514,156.7
13515,161.5
13517,171.2
13518,213.7
13520,217.5
13521,218.3
13523,247.4
13524,178.6
13525,218.0
13526,162.8
13528,185.4
13529,215.7
13532,168.1
13533,189.2
13536,224.8
13537,221.7
13538,216.0
13539,188.3
13540,168.8
13541,218.4
13542,185.8
13547,186.1
13550,219.1
13554,178.0
13555,185.6
13556,191.1
13557,196.4
13558,161.1
13561,197.3
13563,237.1
13566,220.2
13567,193.8
13568,205.7
13570,198.5
13572,197.8
13573,198.1
13577,184.2
13578,219.1
13581,226.4
13583,168.0
13584,159.4
13590,211.0
13591,229.4
13592,202.3
13596,156.9
13597,161.5
13598,227.4
13602,181.1
13604,232.0
13605,213.3
13606,206.1
13609,164.3
13610,172.0
13615,226.8
13616,170.0
13618,229.4
13631,237.1
13633,222.3
13634,213.8
13636,173.4
13637,189.9
13639,218.0
13640,179.7
13641,197.6
13642,210.3
13643,159.3
13645,226.8
13646,205.6
13647,216.1
13648,173.5
13657,204.4
13658,199.3
13659,242.3
13661,210.0
13662,182.8
13663,211.9
13664,192.3
13669,180.6
13670,186.3
13671,225.7
13672,247.4
13679,218.5
13681,205.0
13682,222.0
13683,195.5
13685,224.3
13686,215.8
13687,167.0
13688,217.2
13689,227.9
13690,171.7
13697,201.5
13698,166.5
13699,247.4
13701,179.2
13702,225.2
13703,180.6
13705,187.5
13707,175.6
13708,216.0
13710,206.4
13711,169.3
13713,239.7
13714,196.2
13716,219.2
13717,201.3
13720,216.7
13722,221.0
13726,221.7
13727,215.9
13728,215.9
13729,218.5
13733,220.7
13734,221.1
13735,163.7
13737,206.6
13738,169.1
13740,260.3
13742,169.5
13744,214.4
13745,164.7
13746,195.0
13748,172.8
13750,199.1
13751,181.8
13752,163.0
13753,242.3
13757,171.0
13758,211.6
13763,174.1
13765,172.8
13766,216.6
13767,178.6
13769,171.7
13773,159.8
13775,173.5
13778,220.4
13780,252.6
13782,213.7
13783,199.0
13785,193.5
13786,209.1
13789,211.8
13790,200.8
13793,202.8
13794,232.0
13797,186.9
13798,203.6
13799,182.1
13800,212.8
13803,194.8
13805,165.8
13806,176.0
13807,216.6
13808,208.5
13812,196.5
13815,209.9
13818,199.6
13819,168.7
13820,252.6
13822,163.7
13823,190.8
13826,211.9
13830,169.5
13833,202.9
13834,224.3
13835,210.8
13836,162.7
13837,184.8
13839,160.6
13841,219.2
13842,171.5
13845,200.8
13847,169.8
13848,208.8
13849,186.9
13851,158.1
13853,205.9
13854,164.7
13856,203.3
13859,206.9
13860,226.2
13861,250.0
13862,206.9
13863,169.0
13867,165.5
13872,168.4
13873,168.3
13875,224.3
13876,217.3
13877,175.5
13880,205.6
13883,193.8
13886,213.0
13887,208.0
13888,214.0
13890,214.4
13891,160.4
13892,204.5
13894,173.7
13895,208.8
13897,187.2
13900,178.2
13901,237.1
13908,157.0
13909,220.2
13910,163.2
13911,212.9
13915,176.9
13916,214.0
13920,168.1
13921,210.8
13927,195.8
13928,217.4
13929,214.0
13932,167.2
13935,226.9
13936,158.2
13938,205.9
13940,173.6
13941,216.2
13942,237.1
13944,182.5
13945,206.2
13946,178.2
13948,185.6
13951,206.5
13956,232.0
13957,223.5
13958,164.5
13959,209.0
13960,186.7
13963,160.7
13964,180.2
13965,227.3
13970,232.0
13971,156.6
13972,213.8
13973,176.5
13975,178.2
13977,181.3
13981,200.7
13982,200.6
13983,229.4
13985,160.7
13988,169.9
13991,158.8
13996,178.4
13997,232.0
13998,201.8
13999,177.6
14001,179.4
14003,162.7
14004,201.6
14009,160.0
14010,239.7
14013,221.5
14014,168.9
14018,217.9
14022,204.1
14023,229.4
14025,215.2
14026,161.1
14028,202.3
14030,178.9
14031,179.0
14032,175.2
14036,210.0
14038,242.3
14040,198.7
14042,168.6
14043,201.7
14044,168.6
14045,190.6
14048,207.2
14050,187.2
14051,242.3
14052,203.8
14060,227.9
14061,199.2
14064,219.1
14066,211.8
14068,197.0
14073,172.8
14075,194.7
14076,162.7
14077,252.6
14078,174.0
14080,216.1
14081,201.0
14085,195.0
14086,210.3
14089,199.8
14091,239.7
14093,157.2
14095,200.7
14096,172.6
14100,213.2
14101,165.1
14102,203.1
14103,217.8
14105,216.6
14106,177.2
14109,183.3
14112,204.5
14113,192.9
14116,169.5
14118,247.4
14119,185.5
14122,170.5
14123,177.6
14124,193.3
14126,199.5
14131,224.6
14132,232.0
14133,174.5
14134,190.0
14136,163.4
14137,224.9
14138,193.9
14139,187.4
14140,200.1
14141,208.7
14143,192.6
14144,211.9
14145,211.4
14147,182.1
14152,176.7
14153,176.5
14155,208.4
14157,168.7
14158,252.6
14160,224.0
14161,224.0
14162,195.9
14163,180.7
14164,188.4
14168,170.7
14170,215.1
14171,157.6
14172,218.1
14173,239.7
14174,167.7
14175,210.7
14177,196.3
14178,221.0
14179,193.7
14180,200.7
14181,182.9
14182,175.6
14183,227.0
14186,214.0
14188,190.5
14190,201.5
14193,156.6
14196,197.0
14197,214.1
14198,199.6
14199,247.4
14200,225.1
14201,176.4
14203,171.1
14205,199.3
14207,216.4
14208,189.9
14209,179.6
14210,174.6
14211,165.0
14212,195.6
14213,224.3
14214,170.5
14215,158.7
14216,198.6
14217,198.4
14220,175.7
14221,195.6
14225,224.4
14226,211.4
14228,171.3
14232,175.8
14234,176.5
14236,208.5
14239,202.4
14240,242.3
14241,204.0
14243,193.2
14244,187.2
14245,188.4
14246,194.8
14247,197.7
14248,188.9
14253,185.4
14254,214.0
14256,163.7
14257,206.4
14258,217.6
14260,157.6
14261,218.2
14263,217.6
14265,198.1
14267,206.3
14268,162.1
14271,174.8
14274,187.7
14277,161.9
14279,157.9
14280,234.6
14281,210.6
14283,213.5
14284,174.8
14285,224.5
14286,207.5
14287,224.1
14290,163.4
14291,184.2
14294,216.6
14296,215.7
14298,186.2
14300,208.4
14301,156.0
14304,180.4
14308,219.1
14314,195.1
14316,192.4
14319,223.9
14321,226.8
14323,205.4
14324,183.7
14325,203.7
14329,174.8
14334,216.6
14335,219.9
14339,205.2
14344,170.7
14347,206.0
14348,221.7
14352,225.8
14353,182.5
14355,219.9
14356,226.8
14357,197.4
14358,179.6
14359,219.6
14361,221.7
14369,227.4
14370,176.0
14371,210.7
14375,232.0
14376,157.2
14377,180.1
14378,185.4
14381,217.7
14382,197.5
14383,224.3
14385,190.9
14387,178.4
14389,229.4
14390,165.8
14391,207.3
14392,220.9
14395,220.9
14397,213.3
14398,187.3
14399,190.0
14401,206.6
14402,211.4
14408,198.3
14412,220.8
14414,213.7
14415,234.6
14416,165.0
14418,225.0
14420,216.8
14422,179.8
14423,226.6
14426,205.1
14429,237.1
14431,173.3
14434,179.3
14435,206.8
14437,191.3
14442,209.6
14443,216.6
14446,210.4
14447,219.0
14448,177.7
14449,227.5
14453,161.1
14455,185.6
14456,247.4
14457,210.4
14458,193.2
14460,176.7
14461,173.6
14466,209.9
14467,217.9
14469,218.5
14470,232.0
14471,204.3
14472,170.1
14473,192.9
14479,171.9
14483,214.0
14486,207.8
14487,162.1
14488,211.4
14489,217.2
14490,166.2
14496,255.1
14497,195.5
14499,183.2
14501,180.0
14503,225.6
14504,199.9
14506,171.0
14510,210.7
14511,237.1
14513,202.3
14515,192.3
14518,182.6
14519,221.3
14521,221.1
14523,191.3
14524,214.0
14525,181.2
14528,183.1
14530,190.2
14532,220.2
14533,183.9
14534,185.9
14535,159.7
14536,170.0
14537,247.4
14539,186.4
14540,174.3
14544,205.0
14545,171.2
14548,198.8
14550,185.0
14551,224.3
14554,212.2
14558,183.2
14560,209.2
14563,173.6
14564,208.8
14565,163.6
14567,161.2
14569,225.3
14578,244.8
14580,170.1
14581,182.7
14583,204.9
14586,162.4
14592,216.6
14594,207.4
14598,209.5
14600,159.4
14602,219.6
14603,216.4
14605,211.4
14607,219.8
14610,177.7
14611,218.4
14616,189.2
14617,219.8
14618,237.1
14619,168.5
14621,185.8
14622,165.8
14623,173.6
14624,184.3
14627,194.7
14629,206.2
14630,192.7
14631,214.0
14634,220.9
14636,195.9
14637,219.8
14639,191.2
14640,191.7
14644,212.4
14645,225.6
14646,214.0
14647,217.8
14648,200.2
14650,205.3
14652,202.8
14653,223.7
14658,216.4
14659,237.1
14660,207.3
14662,166.0
14665,181.5
14669,169.7
14670,210.0
14672,216.6
14674,212.7
14676,219.2
14679,218.6
14681,225.3
14682,212.4
14683,190.3
14684,189.5
14686,216.6
14688,196.1
14690,176.3
14692,175.1
14693,166.8
14699,226.8
14701,225.0
14703,190.6
14704,189.6
14711,161.8
14713,221.7
14714,199.0
14715,181.3
14716,177.5
14719,161.5
14720,210.3
14721,211.2
14722,202.9
14725,171.0
14726,200.8
14727,232.0
14728,160.2
14729,158.3
14731,207.7
14734,197.1
14736,176.0
14738,158.4
14739,185.5
14740,221.7
14741,184.7
14742,208.3
14745,166.8
14746,209.6
14748,208.0
14750,180.7
14753,234.6
14754,193.8
14755,225.0
14757,180.0
14762,203.3
14763,182.3
14764,180.6
14767,232.0
14770,169.0
14775,170.4
14778,204.7
14779,223.8
14781,216.6
14782,186.9
14786,158.3
14790,205.2
14791,221.9
14794,244.8
14796,210.9
14799,218.0
14801,158.7
14808,232.0
14809,189.6
14817,217.6
14818,197.1
14819,161.7
14821,208.8
14826,160.3
14829,173.7
14830,178.2
14832,227.3
14835,242.3
14840,203.9
14842,215.4
14844,161.6
14847,199.2
14849,229.4
14851,211.1
14853,192.1
14854,198.6
14858,184.7
14859,178.6
14860,161.8
14862,211.4
14864,195.4
14867,205.2
14869,178.9
14872,171.5
14875,250.0
14876,225.2
14877,212.7
14878,175.9
14882,186.7
14884,178.5
14887,178.1
14888,224.3
14889,188.3
14890,222.5
14894,192.8
14898,211.0
14899,185.4
14902,191.1
14903,203.7
14904,156.0
14907,207.9
14908,208.8
14909,185.6
14913,204.3
14916,239.7
14917,217.8
14918,216.0
14920,195.4
14922,166.6
14924,200.2
14926,209.3
14928,207.3
14929,226.8
14931,182.6
14932,180.7
14934,199.2
14935,183.0
14940,193.9
14943,208.8
14945,200.6
14946,175.9
14947,167.8
14948,172.8
14949,172.7
14955,208.6
14956,239.7
14957,197.3
14958,169.4
14960,186.4
14961,176.6
14963,157.2
14966,176.0
14969,190.6
14970,208.8
14972,173.4
14973,194.5
14975,168.6
14980,167.2
14981,174.2
14983,181.5
14984,198.5
14986,171.6
14987,162.4
14988,184.0
14989,158.3
14991,190.9
14992,188.5
14993,173.5
14994,195.7
14995,216.3
14996,174.2
14997,232.0
14998,208.8
15000,192.0
15003,168.1
15008,188.8
15010,211.4
15012,218.3
15014,215.6
15015,156.2
15018,179.6
15022,174.9
15024,206.3
15027,163.4
15029,223.0
15030,209.7
15031,204.4
15032,222.0
15035,172.3
15038,221.7
15040,192.3
15041,202.5
15043,216.4
15044,227.4
15047,194.7
15048,209.8
15049,206.4
15050,217.9
15051,211.4
15057,185.8
15059,222.6
15060,218.2
15061,190.5
15065,216.6
15066,162.9
15069,162.5
15070,170.7
15071,182.4
15073,192.4
15074,169.5
15075,166.2
15076,193.0
15077,170.1
15078,224.3
15082,220.9
15083,225.9
15085,211.6
15088,194.5
15090,161.7
15091,226.8
15092,171.1
15093,200.8
15097,194.0
15099,194.7
15105,201.9
15106,226.8
15108,206.0
15110,191.2
15112,199.4
15117,180.7
15118,200.8
15119,214.0
15121,200.6
15125,214.2
15128,193.6
15129,206.8
15132,232.0
15135,204.8
15136,226.1
15137,222.0
15138,225.9
15139,195.9
15141,183.0
15144,182.0
15145,234.6
15152,193.4
15155,219.9
15158,218.3
15159,214.0
15160,183.1
15165,180.9
15166,200.7
15167,171.5
15168,170.8
15170,217.5
15171,198.3
15173,239.7
15175,178.4
15177,210.9
15179,197.2
15180,195.4
15182,207.6
15184,159.0
15185,160.0
15186,226.8
15188,170.1
15191,194.4
15194,215.0
15195,218.4
15200,208.8
15205,169.6
15207,165.2
15208,199.7
15209,214.8
15210,178.4
15213,247.4
15216,167.3
15217,205.6
15218,219.1
15219,197.3
15220,209.6
15222,173.4
15224,210.9
15226,232.0
15227,159.7
15228,198.3
15230,222.5
15231,168.5
15232,193.1
15233,167.1
15234,221.1
15235,177.3
15236,227.3
15239,177.3
15241,206.3
15243,184.9
15245,170.2
15248,162.0
15250,219.6
15254,242.3
15258,181.7
15259,170.1
15261,159.9
15262,160.5
15263,172.1
15266,169.7
15267,221.7
15268,214.2
15270,177.4
15276,188.4
15281,208.8
15282,194.4
15283,204.4
15284,163.2
15285,159.4
15287,228.0
15294,244.8
15295,209.3
15296,182.0
15297,195.5
15298,203.8
15301,178.5
15304,188.9
15305,209.4
15306,207.0
15308,219.1
15310,173.1
15311,213.6
15312,179.4
15318,219.8
15322,201.1
15328,164.6
15329,196.2
15330,226.1
15335,232.0
15337,199.0
15338,163.1
15340,185.3
15342,200.2
15343,221.1
15345,175.2
15346,167.0
15348,206.3
15349,186.0
15360,205.3
15362,208.8
15364,223.3
15365,222.0
15367,213.9
15370,157.6
15374,226.0
15376,232.0
15377,222.1
15379,209.9
15383,226.7
15387,183.4
15388,200.3
15389,211.4
15393,157.2
15394,220.5
15396,219.9
15397,217.2
15398,208.3
15400,201.8
15403,211.4
15406,167.5
15407,174.0
15409,213.6
15412,164.9
15414,194.6
15416,219.1
15423,186.1
15424,192.2
15425,165.1
15429,216.6
15430,205.5
15433,201.6
15435,191.9
15437,222.8
15438,185.0
15439,202.8
15440,183.4
15443,224.3
15450,200.5
15451,212.1
15454,224.7
15455,158.2
15456,169.9
15457,216.6
15458,175.5
15459,197.3
15460,223.1
15461,162.2
15462,156.3
15464,180.9
15468,172.6
15469,203.7
15470,229.4
15471,201.7
15475,222.4
15479,224.2
15481,181.3
15482,165.3
15483,232.0
15486,165.6
15488,201.2
15489,159.5
15491,170.5
15493,166.5
15495,159.4
15496,202.5
15497,219.1
15498,189.4
15500,216.9
15502,196.2
15504,200.3
15505,208.9
15506,174.3
15509,169.8
15511,239.7
15513,189.3
15514,164.8
15516,199.9
15518,162.4
15523,180.1
15524,232.0
15527,220.9
15530,214.4
15535,179.8
15536,227.7
15537,219.7
15538,208.8
15539,213.8
15540,157.7
15541,222.9
15542,221.8
15547,224.2
15548,184.8
15550,214.0
15551,239.7
15552,159.2
15553,195.8
15554,168.5
15558,223.3
15560,169.1
15563,156.9
15564,226.8
15565,212.4
15566,217.0
15567,219.8
15568,175.0
15570,224.7
15571,184.7
15573,226.5
15574,225.6
15575,159.0
15576,197.7
15577,174.5
15579,214.0
15580,162.0
15581,192.2
15582,208.5
15585,192.4
15586,187.4
15588,225.3
15589,174.7
15592,255.1
15599,158.5
15601,220.8
15602,179.7
15603,216.6
15605,229.4
15606,187.1
15608,165.7
15609,193.1
15610,191.4
15616,192.6
15618,192.8
15619,203.7
15621,208.4
15623,183.4
15626,186.6
15627,226.7
15629,226.3
15633,239.7
15634,200.9
15636,173.1
15640,170.8
15641,203.4
15642,159.8
15646,221.7
15647,202.6
15648,219.7
15649,165.9
15657,198.6
15660,206.3
15665,219.7
15666,227.4
15667,213.6
15668,218.5
15670,196.0
15673,237.1
15674,156.7
15675,176.1
15676,215.8
15677,176.0
15678,210.2
15681,221.0
15684,161.7
15686,208.8
15687,197.6
15688,157.1
15689,192.6
15690,170.9
15691,164.7
15692,207.9
15695,174.5
15697,227.6
15699,198.3
15700,198.5
15702,227.3
15706,179.2
15707,173.7
15710,168.1
15713,207.7
15714,229.4
15719,176.9
15722,161.3
15723,207.2
15724,164.8
15725,189.1
15727,208.8
15729,196.6
15730,159.4
15732,182.0
15735,178.1
15740,206.3
15741,165.2
15743,173.2
15744,181.8
15746,162.7
15747,208.9
15748,190.1
15750,202.1
15754,221.7
15758,215.0
15760,179.9
15761,171.9
15763,203.3
15767,184.4
15768,203.7
15770,156.6
15774,196.1
15775,218.2
15776,210.7
15777,185.1
15780,201.1
15781,208.8
15782,209.9
15784,185.8
15792,213.6
15794,183.4
15795,226.8
15798,203.6
15799,198.7
15802,168.0
15804,211.7
15805,223.6
15807,194.5
15808,221.7
15810,169.4
15811,219.8
15812,193.8
15813,167.9
15817,194.6
15820,156.1
15821,219.1
15823,211.0
15824,193.9
15829,167.1
15831,182.9
15836,208.8
15841,159.0
15842,220.7
15846,193.0
15849,224.3
15854,186.8
15855,208.4
15857,205.1
15860,215.9
15862,229.4
15865,190.9
15866,185.5
15875,191.7
15876,214.0
15878,157.3
15880,224.3
15881,176.1
15884,213.7
15885,171.8
15886,226.1
15889,237.1
15893,208.9
15900,197.4
15901,215.8
15903,224.3
15907,190.2
15908,166.6
15911,172.6
15914,201.8
15916,161.8
15917,211.4
15919,190.4
15920,220.6
15922,205.2
15927,207.1
15928,199.2
15930,244.8
15931,167.4
15933,192.2
15935,200.8
15938,175.8
15940,207.0
15941,225.5
15942,162.3
15943,229.4
15947,205.4
15948,206.8
15949,177.0
15950,193.9
15951,205.2
15955,226.8
15956,201.1
15957,167.3
15963,188.0
15965,210.8
15966,216.4
15967,202.9
15969,212.9
15970,200.6
15971,237.1
15972,186.6
15975,180.1
15978,175.3
15979,185.3
15982,212.7
15984,221.7
15985,161.2
15990,181.8
15991,202.2
15992,178.4
15993,164.0
15994,185.0
15997,198.5
16000,194.1
16006,186.7
16009,223.3
16011,237.1
16012,156.6
16020,214.2
16021,196.7
16024,211.4
16029,170.9
16031,209.0
16034,214.9
16035,160.4
16037,163.9
16038,190.8
16039,212.5
16040,216.3
16041,162.2
16043,209.0
16045,197.4
16047,203.0
16048,167.2
16050,222.4
16051,166.4
16052,224.3
16053,193.8
16055,210.7
16057,213.0
16058,171.5
16061,211.6
16063,199.2
16064,190.5
16065,203.7
16066,185.5
16067,159.5
16072,201.2
16077,211.2
16078,201.1
16082,187.4
16086,206.0
16087,224.8
16088,213.9
16089,218.9
16090,225.9
16092,221.7
16093,175.8
16094,213.1
16095,170.2
16096,177.6
16097,156.4
16099,216.4
16102,180.0
16103,171.8
16106,198.5
16108,209.8
16109,183.0
16113,219.4
16115,184.7
16117,227.0
16119,201.1
16121,191.0
16123,222.9
16124,179.5
16126,175.6
16128,219.4
16129,180.8
16130,198.2
16132,220.3
16133,219.1
16140,158.9
16142,220.1
16144,190.9
16145,175.2
16146,206.3
16151,209.8
16153,227.3
16154,201.6
16155,165.9
16159,208.8
16160,165.8
16161,201.3
16168,210.0
16173,184.4
16174,206.3
16175,206.2
16176,213.1
16177,200.9
16180,160.5
16182,199.1
16184,167.0
16186,194.2
16187,211.4
16188,226.7
16191,185.4
16194,209.2
16196,222.6
16198,167.1
16199,192.1
16200,221.7
16201,209.1
16204,168.3
16205,162.2
16206,219.4
16209,181.7
16210,179.1
16213,219.8
16214,208.8
16215,212.5
16220,216.4
16224,171.7
16226,173.7
16227,226.8
16230,157.4
16231,191.8
16232,180.5
16237,179.0
16240,166.0
16241,221.7
16243,221.8
16245,183.8
16246,186.0
16249,171.7
16251,199.7
16254,198.5
16256,184.6
16257,202.2
16258,175.2
16262,209.9
16265,156.2
16266,196.4
16267,211.9
16268,229.4
16269,157.6
16270,190.6
16271,180.7
16274,204.0
16277,220.3
16280,206.2
16281,224.3
16282,223.5
16283,199.7
16284,160.7
16288,190.8
16290,182.7
16292,167.0
16293,204.8
16294,201.1
16299,176.0
16301,162.9
16302,178.1
16303,212.2
16305,180.4
16309,234.6
16311,204.4
16312,186.9
16313,175.8
16314,195.0
16318,193.4
16320,204.5
16321,173.6
16322,214.0
16323,212.2
16324,180.2
16326,197.1
16327,175.6
16328,188.0
16334,181.2
16335,193.4
16337,212.2
16340,197.9
16341,158.6
16342,157.3
16344,179.5
16345,208.2
16347,175.0
16348,213.2
16349,232.0
16353,171.1
16357,216.1
16358,172.0
16359,211.1
16362,219.1
16363,194.7
16364,203.3
16366,163.3
16367,217.9
16370,213.7
16371,168.6
16375,166.1
16376,196.0
16378,156.2
16381,197.9
16382,211.3
16383,217.8
16388,159.9
16390,226.8
16391,185.2
16393,224.4
16396,173.4
16398,218.3
16400,180.9
16403,203.7
16410,181.9
16415,189.4
16416,196.0
16417,165.0
16419,159.7
16421,159.4
16423,164.9
16425,180.0
16426,174.2
16429,188.7
16430,226.8
16431,172.5
16440,176.7
16443,225.2
16444,198.5
16447,173.3
16449,161.2
16450,220.4
16452,174.9
16453,194.6
16455,165.6
16457,193.4
16458,181.4
16459,182.3
16460,225.3
16462,180.2
16463,174.3
16465,172.1
16466,175.5
16468,225.6
16469,201.6
16471,214.0
16474,178.2
16475,184.3
16476,179.7
16477,202.7
16478,189.7
16480,200.6
16481,178.6
16484,203.7
16486,173.1
16487,166.4
16488,182.4
16489,182.8
16492,195.8
16493,216.0
16497,206.3
16502,204.5
16506,197.9
16507,225.7
16509,180.8
16512,208.8
16513,209.8
16514,177.7
16515,191.1
16517,222.8
16518,163.0
16521,185.4
16522,159.2
16525,203.7
16529,212.7
16530,221.5
16535,211.7
16538,206.3
16539,174.9
16540,202.1
16543,211.9
16544,185.6
16545,173.2
16546,209.4
16547,203.2
16550,225.3
16551,206.3
16554,177.7
16556,156.1
16557,157.3
16558,163.3
16559,184.8
16561,198.7
16563,226.3
16566,216.6
16569,201.6
16570,162.9
16573,208.5
16575,191.5
16578,198.5
16579,219.1
16580,207.9
16591,214.1
16592,203.7
16596,205.9
16600,226.1
16601,165.0
16602,181.1
16604,179.0
16606,229.4
16609,180.5
16610,159.0
16611,207.3
16613,192.0
16617,176.4
16619,226.8
16622,207.4
16623,185.0
16626,164.8
16627,157.8
16628,199.8
16629,184.0
16631,157.4
16633,206.3
16641,189.1
16642,200.3
16646,158.2
16647,237.1
16651,216.9
16653,210.6
16656,187.6
16657,158.5
16659,183.6
16660,221.7
16663,197.2
16665,202.5
16668,197.4
16671,191.2
16673,198.5
16676,187.1
16677,199.0
16679,224.0
16682,178.5
16685,205.0
16687,247.4
16691,184.6
16692,206.7
16695,163.9
16696,213.5
16697,197.6
16698,212.2
16699,203.8
16700,211.5
16701,221.7
16702,222.5
16703,186.5
16707,184.9
16711,174.0
16712,227.9
16714,198.5
16719,212.9
16720,191.1
16721,173.3
16722,219.3
16723,213.3
16725,206.6
16726,198.8
16727,159.3
16728,232.0
16729,160.2
16732,165.2
16733,194.4
16741,208.8
16745,171.4
16746,212.1
16749,225.6
16754,196.0
16756,172.6
16757,180.9
16758,163.7
16760,170.0
16764,156.5
16766,175.6
16768,159.4
16769,229.4
16778,189.7
16779,217.7
16780,167.9
16782,206.3
16783,201.7
16784,226.2
16786,172.3
16789,185.2
16790,204.4
16792,172.2
16793,190.5
16795,208.8
16796,211.6
16797,196.9
16800,187.8
16802,215.1
16803,160.5
16804,206.0
16806,193.5
16808,232.0
16809,157.6
16810,206.7
16811,217.5
16813,220.2
16815,156.8
16817,159.7
16818,188.9
16821,207.9
16822,211.4
16826,213.9
16832,211.7
16834,187.5
16835,182.3
16836,211.4
16837,214.6
16838,184.1
16839,157.8
16842,168.5
16844,217.2
16846,169.1
16849,226.8
16850,227.4
16852,185.9
16855,220.6
16859,189.9
16860,198.6
16861,175.0
16863,211.4
16864,212.0
16868,160.9
16873,219.8
16876,211.4
16881,218.2
16883,193.7
16887,186.9
16889,216.6
16891,198.0
16892,162.4
16894,165.1
16895,165.2
16896,170.1
16898,213.8
16899,161.4
16900,201.1
16904,219.1
16912,168.0
16915,218.4
16917,219.1
16918,214.0
16920,161.9
16921,163.8
16922,191.2
16924,202.2
16928,196.9
16929,226.4
16930,208.8
16934,216.7
16935,214.3
16936,218.3
16939,184.4
16940,210.6
16942,178.9
16943,225.4
16944,221.7
16950,201.3
16955,175.6
16957,219.1
16959,221.9
16961,206.4
16962,169.0
16963,205.4
16965,178.8
16966,176.6
16967,161.5
16968,193.5
16969,213.4
16971,206.3
16973,205.5
16978,203.9
16979,211.0
16980,206.1
16981,162.1
16982,183.5
16983,188.4
16985,237.1
16987,192.8
16993,157.3
16996,180.3
16998,221.7
17000,160.2
17003,195.8
17007,202.7
17008,194.9
17011,198.5
17012,205.7
17013,171.6
17014,216.3
17015,208.0
17016,192.9
17017,212.2
17018,194.7
17019,220.6
17021,218.1
17022,223.6
17024,174.7
17025,234.6
17027,204.3
17028,167.9
17032,224.1
17034,174.8
17037,193.6
17038,170.3
17039,219.1
17043,179.3
17044,226.2
17046,220.8
17052,198.5
17056,164.0
17060,187.9
17063,195.0
17065,237.1
17068,221.6
17069,156.8
17071,156.1
17075,190.7
17076,212.0
17079,211.4
17080,222.2
17082,189.7
17085,190.8
17087,208.7
17088,156.8
17089,186.4
17090,203.9
17091,187.4
17092,190.8
17093,225.9
17094,173.1
17099,189.5
17100,166.4
17102,199.5
17104,156.2
17105,186.3
17106,226.8
17109,190.8
17113,216.4
17114,201.8
17116,169.4
17117,162.8
17120,208.8
17121,166.6
17125,176.3
17126,193.7
17127,193.2
17129,196.4
17131,203.3
17133,196.0
17135,163.4
17140,184.1
17142,197.3
17143,159.2
17145,219.8
17146,221.7
17147,204.3
17148,183.9
17149,177.4
17151,179.7
17152,184.8
17153,200.3
17157,189.6
17160,193.4
17161,163.9
17162,200.1
17163,184.9
17165,179.2
17167,221.2
17168,210.2
17171,199.9
17174,188.3
17176,157.5
17181,212.5
17187,214.0
17189,174.0
17190,213.4
17192,158.4
17193,196.6
17195,207.1
17199,191.0
17201,196.0
17202,157.1
17203,177.5
17204,180.2
17206,203.7
17209,164.2
17211,225.2
17214,193.4
17215,188.4
17221,159.8
17222,195.8
17223,209.1
17225,182.9
17227,206.3
17228,197.3
17230,169.5
17232,227.5
17233,166.2
17234,184.2
17237,224.7
17239,189.3
17240,168.6
17242,198.5
17243,225.2
17244,222.4
17248,160.8
17249,173.9
17251,220.9
17253,208.5
17255,203.7
17256,212.2
17258,180.5
17259,168.4
17260,213.3
17262,166.1
17263,164.1
17264,197.1
17267,222.9
17268,203.7
17271,157.8
17275,207.0
17276,188.8
17278,213.1
17280,193.0
17281,166.2
17282,214.0
17283,216.7
17284,199.5
17285,170.3
17288,227.5
17289,195.3
17292,210.4
17294,215.6
17295,211.4
17298,169.8
17300,216.4
17303,202.0
17308,156.3
17309,196.0
17317,182.1
17318,173.2
17319,213.8
17322,217.3
17323,216.6
17324,190.6
17326,180.3
17327,174.3
17328,197.3
17330,211.5
17331,206.8
17335,164.8
17336,224.3
17337,219.1
17339,208.9
17343,177.9
17344,221.3
17346,211.1
17347,166.8
17349,201.1
17351,195.1
17354,169.6
17356,197.1
17362,226.8
17363,182.5
17364,224.5
17365,198.0
17366,190.7
17369,197.6
17370,223.1
17374,180.4
17376,210.6
17377,216.6
17383,199.4
17384,163.2
17385,222.9
17387,161.9
17390,190.8
17393,191.0
17398,157.9
17399,158.4
17400,185.6
17401,188.5
17403,232.0
17406,160.1
17407,197.3
17409,161.3
17410,174.3
17411,223.2
17412,183.5
17414,179.8
17415,225.3
17417,214.0
17420,174.2
17423,214.3
17426,210.8
17428,201.4
17430,198.5
17431,188.3
17436,171.0
17437,188.3
17439,196.2
17440,164.3
17442,196.1
17444,226.8
17445,211.0
17446,185.1
17447,189.5
17451,204.0
17454,217.8
17458,206.3
17461,156.7
17462,176.1
17463,178.3
17464,223.8
17465,203.2
17468,207.4
17469,198.3
17470,207.6
17471,190.8
17472,204.7
17475,204.1
17476,172.8
17482,161.8
17483,210.9
17484,226.8
17485,210.7
17486,159.2
17488,172.3
17491,175.0
17493,213.0
17497,209.9
17498,208.0
17499,201.1
17502,188.5
17503,221.7
17504,226.8
17505,220.5
17506,175.0
17507,218.5
17512,183.1
17513,164.4
17515,156.0
17518,195.1
17522,220.6
17524,217.8
17525,214.0
17526,198.2
17527,206.5
17532,226.8
17534,208.2
17536,171.6
17539,190.8
17542,164.4
17546,162.7
17549,180.8
17552,196.0
17554,157.4
17557,180.5
17559,176.8
17561,190.8
17563,188.8
17565,212.1
17566,216.6
17571,198.0
17572,223.6
17573,214.9
17574,207.7
17575,177.5
17578,190.4
17580,196.0
17581,215.9
17583,163.6
17584,159.7
17586,224.6
17589,197.5
17590,184.2
17593,198.5
17594,219.4
17597,182.1
17599,204.5
17600,181.3
17602,180.6
17603,166.8
17604,196.7
17605,188.8
17606,203.7
17614,168.0
17616,205.2
17619,203.7
17620,171.1
17621,192.5
17622,175.3
17625,227.2
17626,157.8
17630,170.6
17634,211.4
17636,156.7
17637,192.5
17640,224.9
17643,183.4
17645,217.8
17646,209.4
17647,198.5
17648,156.8
17649,187.2
17650,208.1
17651,208.5
17652,169.1
17654,218.3
17655,202.8
17656,218.1
17660,211.4
17662,160.9
17668,193.4
17670,223.1
17671,212.3
17672,190.3
17674,214.0
17675,201.0
17676,218.1
17677,219.6
17678,220.1
17680,187.6
17681,183.0
17682,158.9
17683,203.1
17684,197.0
17685,220.3
17686,185.3
17687,196.0
17688,183.1
17689,191.8
17690,198.4
17696,219.3
17697,214.2
17698,222.4
17699,161.0
17700,212.5
17701,224.3
17703,160.0
17704,187.5
17705,173.2
17706,181.7
17709,165.4
17710,199.0
17712,168.4
17713,203.6
17715,216.6
17717,158.3
17723,194.9
17728,190.8
17731,220.9
17735,222.0
17736,176.7
17737,167.8
17740,169.9
17741,226.8
17742,223.8
17746,173.4
17750,212.7
17751,171.5
17752,198.4
17755,208.8
17756,172.5
17757,176.2
17758,157.6
17760,184.9
17762,207.0
17763,158.0
17766,217.1
17767,224.2
17768,196.8
17769,196.0
17770,226.2
17771,207.0
17772,205.0
17773,156.2
17774,200.1
17775,203.1
17776,169.7
17779,187.5
17780,219.4
17782,237.1
17783,179.3
17784,166.1
17788,178.0
17789,165.8
17791,180.7
17793,190.7
17795,216.1
17796,211.4
17800,158.4
17801,183.5
17802,223.7
17807,174.3
17809,188.3
17810,219.8
17812,196.0
17813,176.7
17816,190.5
17818,224.2
17819,173.7
17820,164.4
17822,224.3
17823,197.7
17828,210.2
17830,213.6
17836,212.4
17837,203.7
17841,174.4
17842,182.1
17850,193.4
17852,225.3
17853,221.1
17856,194.1
17858,156.5
17859,173.8
17860,188.0
17861,210.7
17862,177.8
17863,221.7
17864,165.5
17867,180.0
17868,158.2
17870,196.1
17871,225.9
17872,186.5
17873,194.2
17874,225.2
17876,196.0
17885,195.2
17886,158.0
17889,169.0
17890,185.7
17892,172.5
17894,198.5
17897,165.4
17901,164.8
17904,216.6
17905,219.9
17908,222.0
17909,158.5
17910,220.8
17911,200.7
17912,207.6
17914,179.5
17915,184.9
17916,185.9
17917,198.5
17918,171.0
17919,198.6
17920,197.5
17922,165.5
17923,214.4
17926,196.7
17927,211.9
17930,167.5
17931,196.0
17934,219.8
17937,191.8
17938,215.5
17942,206.4
17943,174.1
17944,206.3
17945,167.3
17949,178.3
17950,182.1
17952,185.4
17953,197.5
17955,164.1
17957,198.5
17960,221.9
17963,197.6
17965,178.3
17967,164.3
17969,156.6
17972,201.1
17973,170.0
17974,169.2
17977,196.1
17978,156.5
17980,156.3
17981,179.3
17984,206.5
17985,208.8
17987,168.9
17989,191.1
17990,180.4
17993,161.7
17998,216.6
18000,223.6
18001,166.6
18005,167.5
18008,206.6
18009,210.2
18012,214.0
18013,161.9
18016,219.9
18017,182.0
18019,182.4
18022,175.6
18023,184.7
18025,201.1
18026,194.1
18029,200.6
18031,203.4
18032,206.1
18038,160.0
18039,219.1
18040,219.9
18041,185.2
18042,165.5
18049,189.6
18053,219.1
18055,202.8
18058,157.3
18060,163.0
18062,168.3
18063,205.0
18066,201.1
18067,197.1
18069,174.2
18072,168.3
18076,159.7
18077,218.5
18078,184.7
18079,229.4
18082,190.7
18084,221.4
18086,180.6
18089,208.9
18091,223.1
18092,214.0
18093,216.6
18094,170.5
18107,201.1
18108,197.2
18110,182.8
18111,224.6
18114,166.2
18117,173.1
18119,196.0
18120,237.1
18122,184.6
18123,206.9
18125,156.8
18127,159.5
18128,162.3
18134,219.1
18135,174.7
18136,188.1
18138,198.8
18139,172.5
18144,184.9
18145,161.4
18147,196.0
18148,209.4
18151,194.3
18152,192.0
18153,163.2
18159,201.7
18160,229.4
18164,156.5
18165,182.3
18166,208.0
18167,196.7
18174,208.8
18176,191.7
18177,226.6
18179,226.2
18182,204.2
18183,158.0
18186,165.3
18188,190.8
18191,161.3
18193,165.4
18194,164.6
18196,196.5
18197,195.6
18199,207.9
18200,165.1
18201,232.0
18203,172.3
18214,203.7
18215,166.8
18216,196.7
18218,216.6
18228,188.3
18229,215.9
18230,197.4
18231,217.3
18233,210.3
18239,198.2
18241,192.4
18242,219.1
18245,198.7
18251,163.4
18252,194.6
18255,198.5
18258,223.5
18259,221.4
18265,221.8
18266,214.4
18269,196.0
18275,161.6
18281,216.6
18282,216.6
18284,213.7
18288,202.5
18289,162.0
18290,199.3
18292,226.1
18293,221.1
18295,189.6
18296,198.5
18300,215.8
18310,206.3
18313,189.1
18314,206.1
18317,164.0
18318,213.0
18319,178.3
18323,219.1
18324,169.2
18326,196.4
18327,189.7
18328,173.2
18331,185.7
18333,183.8
18334,180.9
18335,161.7
18336,216.6
18340,222.6
18343,173.1
18345,161.0
18346,177.6
18350,219.1
18353,197.4
18355,226.3
18356,213.0
18358,189.8
18359,188.4
18364,211.4
18365,210.7
18368,202.5
18377,219.1
18378,207.0
18385,189.2
18386,168.4
18388,210.1
18391,221.7
18392,177.4
18398,201.7
18400,170.2
18404,208.8
18410,219.6
18412,217.9
18414,200.8
18416,189.3
18417,234.6
18424,191.7
18426,199.5
18428,218.4
18430,182.1
18432,224.3
18433,163.9
18435,221.1
18436,210.2
18440,217.3
18442,172.0
18445,201.1
18446,193.3
18449,204.7
18451,159.1
18454,167.3
18455,221.9
18456,159.4
18457,214.0
18458,232.0
18459,175.5
18460,194.4
18464,157.4
18465,177.4
18467,177.1
18471,221.7
18472,197.8
18475,186.2
18480,159.6
18481,158.2
18483,159.6
18484,176.7
18485,203.7
18488,199.3
18492,186.2
18493,181.5
18497,172.4
18499,237.1
18501,185.9
18502,176.7
18505,168.1
18508,183.5
18509,212.1
18510,206.0
18512,216.6
18513,166.0
18515,182.3
18517,198.8
18521,222.4
18524,171.9
18526,198.5
18529,212.3
18531,172.6
18532,198.9
18533,162.1
18534,224.9
18535,222.5
18536,201.3
18538,160.2
18539,242.3
18541,163.2
18544,179.9
18549,189.6
18550,163.8
18551,207.2
18552,219.1
18554,210.2
18555,169.3
18556,169.1
18559,178.4
18561,160.7
18562,191.4
18565,218.4
18566,186.3
18567,201.1
18568,225.8
18570,156.9
18572,156.8
18573,160.7
18575,175.1
18577,222.1
18580,232.0
18587,213.4
18591,171.7
18593,206.3
18594,179.8
18595,194.0
18596,209.1
18598,188.3
18599,178.0
18602,167.4
18606,194.8
18607,198.5
18608,173.4
18609,213.2
18610,210.8
18615,210.9
18619,200.4
18620,229.4
18623,205.3
18632,221.6
18634,203.7
18635,190.7
18636,190.3
18638,223.3
18641,226.8
18647,173.9
18648,198.5
18651,198.8
18654,212.9
18655,168.0
18656,211.4
18658,167.8
18660,177.7
18661,219.1
18662,208.5
18667,173.0
18670,179.4
18671,159.1
18673,170.6
18674,203.7
18676,199.6
18677,157.1
18678,158.7
18679,225.9
18680,160.0
18681,177.6
18683,188.6
18684,160.9
18687,216.5
18688,216.6
18689,178.4
18690,166.5
18692,192.2
18693,174.0
18694,209.1
18697,179.4
18698,174.7
18699,223.6
18701,207.4
18702,216.6
18706,176.5
18709,202.2
18710,165.0
18712,200.6
18714,199.1
18715,216.6
18716,208.1
18718,210.0
18720,208.9
18721,187.9
18722,182.2
18723,218.1
18728,219.1
18731,224.1
18732,172.2
18733,170.1
18742,216.6
18743,224.8
18745,205.2
18747,184.8
18749,157.4
18751,179.0
18752,171.3
18755,237.1
18757,212.0
18758,198.5
18763,169.2
18767,227.4
18769,232.0
18772,181.0
18773,193.0
18774,196.2
18777,172.0
18778,188.9
18781,173.9
18783,208.8
18784,213.5
18785,192.8
18788,220.2
18789,173.7
18790,223.3
18791,172.7
18792,180.5
18796,234.6
18797,201.3
18798,216.4
18800,171.0
18801,169.0
18803,172.6
18806,178.3
18809,224.3
18810,216.8
18811,167.0
18812,210.6
18813,223.2
18814,157.6
18816,197.0
18817,183.0
18822,207.4
18823,203.7
18827,189.0
18829,160.0
18834,172.6
18835,159.2
18836,221.9
18837,239.7
18839,184.8
18840,165.0
18846,215.1
18847,179.5
18849,215.0
18850,221.7
18854,191.1
18855,162.5
18857,224.2
18861,179.3
18863,217.9
18864,198.5
18865,159.9
18867,198.3
18868,225.6
18871,201.7
18872,206.3
18875,175.7
18877,239.7
18879,167.0
18880,202.6
18881,205.5
18884,177.5
18888,180.5
18889,178.0
18890,219.1
18891,161.7
18892,200.7
18893,182.7
18894,182.8
18898,162.3
18900,179.1
18902,192.8
18904,214.5
18905,203.7
18906,223.8
18907,211.5
18909,161.4
18911,162.6
18915,174.0
18917,226.4
18918,239.7
18919,226.1
18920,180.9
18924,157.5
18925,207.5
18931,214.0
18934,172.1
18937,205.6
18941,200.0
18943,174.3
18945,196.0
18948,210.9
18949,160.9
18950,207.3
18951,189.9
18953,180.0
18956,191.8
18957,210.5
18958,226.8
18960,181.8
18961,224.4
18963,220.4
18964,184.2
18966,213.4
18967,168.5
18968,193.1
18969,202.8
18971,226.6
18972,203.7
18975,185.5
18976,157.3
18980,212.4
18981,164.7
18982,185.6
18984,216.9
18985,206.3
18986,161.4
18989,204.2
18990,194.6
18992,182.3
18993,224.3
18996,187.1
18999,226.8
19000,178.7
19001,156.7
19002,212.1
19003,189.0
19004,223.6
19008,178.5
19009,176.8
19010,159.9
19011,199.7
19012,206.3
19015,203.5
19018,192.1
19020,181.8
19023,203.0
19024,198.9
19025,206.3
19029,189.2
19033,161.6
19034,169.7
19036,171.5
19039,225.4
19040,219.1
19042,157.7
19043,223.2
19045,159.0
19049,211.1
19050,158.7
19053,216.6
19058,159.2
19062,222.0
19066,221.7
19067,211.1
19068,186.1
19069,162.9
19070,159.6
19071,171.6
19072,166.7
19075,215.8
19076,193.8
19079,196.1
19080,214.0
19082,194.7
19083,170.9
19084,176.2
19085,226.1
19087,184.1
19088,164.2
19091,223.6
19092,196.0
19093,224.3
19095,164.2
19098,225.6
19100,190.1
19101,194.6
19103,181.4
19105,194.0
19107,224.3
19109,205.3
19112,223.1
19114,223.0
19119,159.3
19121,211.4
19122,181.2
19124,158.5
19126,198.6
19127,180.1
19129,184.8
19130,196.1
19131,210.6
19134,234.6
19136,183.4
19139,168.7
19141,158.5
19143,190.5
19145,167.2
19146,191.2
19147,224.3
19148,215.3
19152,208.1
19154,226.8
19157,164.1
19161,204.2
19162,201.1
19164,218.3
19167,188.2
19169,201.5
19172,189.0
19173,181.3
19175,232.0
19176,176.4
19178,189.6
19179,172.1
19182,208.2
19183,212.2
19184,225.1
19185,172.0
19187,211.3
19188,226.8
19189,199.5
19193,224.6
19194,193.5
19195,199.1
19197,201.3
19198,197.0
19201,163.4
19202,201.1
19209,174.4
19210,226.3
19212,199.7
19215,237.1
19218,170.7
19219,189.2
19220,161.7
19225,183.9
19229,226.8
19231,175.0
19232,158.5
19236,187.3
19237,193.9
19241,208.1
19243,203.7
19246,188.4
19250,160.9
19252,196.4
19253,210.9
19255,220.3
19256,244.8
19261,162.0
19263,177.9
19265,187.0
19266,181.3
19267,199.7
19268,182.3
19269,221.7
19272,185.0
19277,227.8
19278,173.9
19279,210.0
19281,192.3
19282,201.1
19286,222.0
19292,203.2
19293,171.1
19294,223.1
19297,232.0
19303,157.2
19307,158.3
19310,208.8
19311,181.2
19317,216.1
19318,180.9
19320,179.9
19323,198.5
19324,213.0
19326,173.3
19327,189.8
19328,190.3
19329,213.2
19337,229.4
19338,157.3
19340,170.4
19343,183.3
19344,205.5
19346,190.6
19347,198.6
19350,203.7
19354,167.6
19355,185.9
19357,182.7
19359,195.4
19362,204.5
19364,198.5
19368,156.9
19372,163.5
19374,174.9
19376,160.1
19377,224.7
19378,216.6
19379,224.8
19381,176.9
19384,179.1
19386,203.4
19387,227.8
19389,177.3
19391,203.7
19397,227.5
19399,192.5
19401,209.6
19402,158.6
19403,196.6
19404,214.0
19411,222.1
19413,216.7
19415,196.9
19416,191.7
19417,201.4
19418,216.6
19419,173.1
19421,192.7
19423,165.7
19424,183.2
19427,184.2
19431,156.9
19432,214.0
19433,213.5
19434,211.6
19436,173.9
19438,171.8
19440,204.3
19441,158.0
19443,197.8
19445,226.8
19446,177.0
19447,178.5
19449,200.3
19452,200.5
19455,172.3
19456,157.3
19457,205.8
19459,216.6
19461,207.4
19462,163.7
19464,227.4
19465,196.8
19466,202.4
19469,178.6
19470,175.5
19472,229.4
19474,210.3
19475,167.0
19476,200.6
19482,205.9
19484,181.9
19485,234.6
19487,193.6
19489,213.5
19491,167.3
19494,180.3
19495,188.6
19499,179.6
19500,214.0
19502,185.1
19504,156.3
19505,165.2
19506,158.7
19507,172.2
19510,224.7
19511,158.8
19512,183.5
19513,237.1
19515,189.7
19520,217.4
19521,226.2
19522,163.4
19523,181.9
19524,203.5
19526,229.4
19527,193.3
19528,209.0
19532,215.5
19535,163.4
19536,193.2
19539,208.8
19540,201.3
19541,211.6
19542,192.5
19544,221.4
19545,180.3
19547,185.7
19548,187.1
19550,207.1
19553,247.4
19554,213.7
19556,217.2
19558,171.7
19561,165.2
19563,194.0
19565,177.2
19567,224.3
19569,175.8
19570,201.7
19571,158.4
19572,196.1
19573,213.6
19574,186.0
19575,179.5
19576,190.1
19579,200.0
19580,201.1
19581,215.7
19582,214.3
19583,217.6
19586,176.3
19588,177.8
19594,237.1
19597,157.1
19601,167.5
19604,226.3
19605,206.0
19607,221.7
19609,166.7
19610,194.6
19611,216.2
19616,169.8
19618,161.1
19619,218.5
19620,203.7
19621,172.9
19622,161.5
19624,182.4
19626,172.3
19628,161.3
19629,216.2
19631,163.9
19632,194.4
19635,237.1
19636,206.1
19639,183.4
19641,183.4
19642,198.3
19643,164.8
19644,175.0
19645,164.7
19647,210.9
19648,211.4
19649,204.2
19650,185.4
19652,183.6
19654,157.8
19657,188.7
19658,212.3
19659,162.7
19660,192.1
19661,190.8
19662,216.0
19663,164.9
19667,163.3
19671,197.8
19673,213.6
19674,165.0
19675,229.4
19676,178.7
19678,224.3
19682,224.9
19684,204.7
19688,206.3
19690,166.3
19691,177.9
19694,191.0
19696,196.3
19697,204.2
19699,171.2
19701,160.6
19702,201.1
19704,159.3
19705,174.9
19706,176.2
19707,170.3
19709,161.0
19711,163.5
19712,224.0
19714,228.0
19716,224.3
19718,196.5
19729,201.1
19732,163.5
19733,156.7
19736,226.8
19738,222.4
19739,206.2
19742,203.7
19744,172.7
19745,178.7
19746,164.3
19748,218.9
19750,204.1
19752,178.3
19753,188.4
19756,219.1
19759,192.2
19760,185.8
19761,197.2
19763,175.8
19764,159.4
19765,228.0
19766,183.8
19768,163.2
19770,221.7
19771,203.6
19773,192.2
19776,193.9
19777,161.0
19779,170.3
19781,174.9
19783,219.1
19785,214.1
19787,210.9
19789,184.1
19790,178.7
19791,165.0
19792,211.0
19793,189.0
19794,203.6
19795,190.0
19796,214.0
19797,175.4
19798,159.9
19800,208.2
19804,158.0
19807,171.5
19808,227.5
19810,216.6
19811,188.4
19815,174.6
19817,201.2
19818,200.2
19819,225.8
19820,188.4
19822,199.5
19823,221.7
19824,172.5
19825,199.8
19826,207.0
19828,184.3
19832,225.8
19833,200.3
19834,162.4
19835,214.7
19837,216.6
19838,185.1
19839,177.6
19843,156.3
19845,183.7
19847,172.1
19848,186.7
19849,214.3
19851,232.0
19856,181.2
19857,223.7
19858,206.6
19859,196.1
19863,181.0
19864,221.7
19865,222.6
19867,184.6
19868,162.3
19869,216.2
19870,161.8
19872,227.7
19874,199.4
19876,202.4
19877,203.7
19879,177.3
19881,212.6
19882,167.9
19884,172.3
19886,158.7
19891,237.1
19895,223.0
19896,157.5
19901,176.2
19904,176.9
19905,229.4
19907,193.5
19908,189.4
19910,177.6
19911,196.4
19914,211.8
19915,201.8
19917,214.8
19918,208.8
19920,198.5
19921,192.6
19922,193.2
19923,189.6
19926,220.7
19929,173.7
19932,244.8
19934,214.2
19935,157.8
19936,159.9
19939,220.2
19940,213.5
19941,156.3
19943,161.2
19944,191.0
19945,224.3
19946,224.8
19950,218.0
19954,203.1
19955,178.6
19956,221.3
19958,198.5
19963,198.9
19965,214.2
19967,214.7
19973,237.1
19974,223.3
19977,188.0
19982,163.4
19983,223.1
19986,226.8
19990,161.3
19992,163.7
19995,206.7
19996,186.5
19999,203.7
20000,159.7
20003,158.6
20004,200.4
20007,168.3
20009,162.7
20011,176.6
20012,162.2
20013,234.6
20018,226.0
20021,181.7
20022,217.1
20023,186.4
20024,176.1
20026,172.7
20027,206.3
20028,203.9
20031,193.4
20037,203.8
20040,201.1
20042,208.6
20046,226.9
20049,222.6
20051,182.9
20052,167.6
20053,196.9
20054,232.0
20057,163.8
20058,211.9
20059,157.9
20060,171.2
20064,172.9
20066,173.6
20067,208.8
20071,156.1
20072,223.4
20075,160.0
20077,200.4
20080,201.1
20081,213.4
20084,198.0
20085,183.7
20086,185.1
20088,181.1
20089,207.8
20091,207.7
20094,221.7
20096,224.9
20097,200.2
20098,202.6
20101,188.9
20102,163.5
20103,188.7
20105,225.2
20106,218.6
20108,208.8
20109,211.0
20110,206.0
20112,167.1
20113,192.5
20115,207.7
20117,167.0
20118,222.1
20121,216.6
20123,213.1
20125,214.4
20126,215.2
20128,216.9
20129,183.1
20130,179.7
20133,203.6
20134,221.7
20137,216.2
20139,167.0
20140,190.5
20141,214.5
20143,195.8
20148,214.0
20149,203.8
20151,174.8
20152,161.6
20153,222.6
20155,173.4
20158,197.5
20160,213.0
20161,220.4
20162,216.6
20163,190.7
20164,199.8
20165,187.7
20167,158.4
20171,156.4
20173,182.2
20174,202.2
20175,214.0
20181,190.4
20183,172.5
20186,179.0
20187,199.7
20189,224.3
20190,164.5
20192,207.6
20193,184.0
20195,180.4
20196,184.3
20199,214.4
20202,237.1
20204,196.1
20206,169.5
20207,219.1
20209,210.0
20210,184.3
20211,184.8
20213,215.0
20214,194.5
20215,219.1
20218,198.9
20220,157.1
20223,223.6
20225,203.7
20226,201.2
20227,179.6
20228,191.0
20229,217.0
20230,237.1
20232,172.6
20234,207.6
20235,174.0
20236,165.5
20237,206.1
20243,232.0
20244,226.7
20245,208.1
20246,227.0
20248,184.6
20249,209.8
20251,225.5
20252,182.1
20253,165.1
20254,216.0
20255,202.7
20256,211.4
20260,179.7
20261,200.7
20262,168.5
20265,226.9
20267,156.5
20268,204.0
20270,244.8
20273,212.4
20275,213.3
20277,164.0
20279,211.5
20282,160.0
20283,226.8
20284,214.9
20285,186.5
20286,185.9
20291,216.9
20297,203.7
20302,189.1
20303,196.5
20304,212.7
20306,225.7
20309,209.8
20310,201.1
20311,239.7
20312,161.9
20315,224.2
20316,217.6
20321,156.1
20324,221.7
20328,204.4
20329,196.0
20335,166.1
20337,206.3
20341,211.0
20345,194.2
20346,177.8
20350,239.7
20353,225.9
20354,215.9
20355,201.0
20356,211.0
20358,205.4
20361,220.1
20363,207.0
20364,196.4
20365,214.0
20366,185.2
20368,165.2
20370,204.5
20371,171.7
20372,160.4
20374,203.9
20375,194.1
20378,193.4
20379,191.6
20380,220.0
20381,226.5
20382,224.3
20383,173.6
20384,227.4
20386,217.6
20388,223.6
20391,232.0
20393,225.8
20395,208.2
20397,161.1
20398,166.0
20404,227.1
20405,203.7
20406,211.6
20407,194.2
20409,165.8
20411,166.1
20412,185.6
20413,210.0
20417,193.9
20418,201.1
20419,226.9
20422,215.2
20424,164.8
20431,183.7
20432,224.3
20436,201.9
20437,201.2
20439,207.7
20440,215.6
20443,167.2
20446,203.7
20448,185.8
20449,211.0
20451,205.7
20452,187.4
20453,173.2
20456,192.5
20459,206.3
20460,178.8
20461,201.0
20462,198.6
20464,185.8
20465,189.3
20467,175.7
20470,216.2
20472,224.3
20473,166.6
20478,212.3
20480,204.0
20481,207.3
20482,208.9
20486,214.0
20487,203.4
20489,226.4
20490,166.1
20492,220.8
20493,166.7
20495,219.9
20496,214.0
20500,211.4
20505,214.0
20506,221.6
20507,168.6
20509,219.9
20510,173.3
20511,198.0
20513,214.0
20517,199.6
20518,201.0
20519,179.1
20520,217.9
20522,223.4
20527,221.7
20530,178.5
20532,221.3
20534,185.8
20538,174.5
20540,229.4
20541,177.7
20542,193.5
20544,210.7
20545,173.9
20547,222.4
20548,201.3
20551,211.2
20552,208.5
20553,214.0
20554,187.3
20556,164.1
20557,226.0
20558,164.4
20559,178.3
20561,225.9
20565,171.9
20566,186.7
20568,226.8
20570,157.8
20575,206.9
20578,157.8
20579,196.5
20580,190.5
20581,224.3
20583,216.5
20585,178.8
20586,181.0
20588,204.6
20589,212.3
20592,160.0
20593,202.1
20594,208.8
20595,184.0
20597,220.0
20598,212.2
20601,194.2
20606,222.9
20608,239.7
20609,159.8
20613,222.4
20617,197.6
20618,205.5
20619,157.1
20621,221.7
20625,208.5
20630,224.7
20632,224.7
20635,198.5
20636,189.7
20637,164.4
20639,168.9
20644,208.2
20645,184.6
20646,208.2
20647,171.6
20648,237.1
20651,169.7
20652,192.6
20654,161.2
20658,213.3
20659,168.6
20660,179.0
20661,203.4
20662,224.3
20663,198.4
20664,224.5
20665,189.7
20666,172.4
20670,188.8
20673,222.0
20674,197.1
20675,203.7
20676,199.3
20677,181.8
20680,191.2
20681,197.7
20682,211.0
20687,160.9
20688,239.7
20691,225.2
20692,214.8
20693,174.3
20694,188.5
20695,205.1
20697,161.3
20698,190.5
20700,171.6
20701,184.2
20703,216.6
20705,222.4
20706,156.9
20707,207.2
20708,186.7
20710,225.2
20711,184.3
20716,193.4
20717,203.0
20719,218.1
20722,163.5
20723,167.5
20728,224.3
20729,232.0
20732,177.0
20733,217.2
20735,170.8
20736,158.2
20738,157.0
20743,216.6
20745,159.1
20752,184.7
20754,173.9
20755,209.5
20756,201.1
20762,192.6
20763,166.5
20764,225.4
20765,201.2
20768,227.6
20769,196.2
20770,229.4
20771,192.8
20775,172.1
20777,221.5
20779,218.2
20780,213.6
20784,201.1
20789,158.8
20791,190.0
20793,207.6
20794,193.8
20795,162.0
20797,198.5
20803,201.8
20805,172.5
20806,186.7
20810,221.7
20811,181.4
20814,222.2
20815,195.2
20819,166.8
20820,156.2
20821,165.6
20822,160.6
20824,208.8
20826,188.3
20828,157.6
20829,177.2
20833,195.2
20838,206.3
20839,174.2
20841,204.5
20843,187.5
20844,207.6
20845,191.3
20846,206.3
20848,210.9
20849,171.1
20850,184.5
20851,208.8
20852,160.8
20855,201.0
20856,208.6
20857,181.5
20860,162.6
20862,207.1
20865,203.7
20871,157.3
20872,182.2
