0,13.3
1,12.9
2,-2.1
4,24.2
5,39.1
6,18.7
7,36.5
9,16.1
10,18.5
11,9.8
12,0.5
14,-17.5
17,10.8
19,19.2
20,6.6
21,19.6
24,27.8
25,41.6
26,23.4
27,5.9
31,12.2
32,11.6
34,-17.5
36,26.8
37,12.4
40,12.0
41,6.4
42,24.6
45,41.6
46,16.9
48,4.4
50,10.4
53,7.3
54,-17.5
56,18.0
58,17.4
59,25.2
61,6.2
65,39.1
68,10.5
69,17.7
74,-15.0
76,19.5
78,18.3
79,2.2
81,13.6
83,9.7
84,41.6
86,5.5
90,24.4
93,2.6
94,-15.0
95,9.0
97,14.4
99,21.9
104,41.6
106,12.7
108,17.3
111,27.9
112,3.6
114,-20.1
120,13.4
121,18.1
122,14.6
126,39.1
129,16.6
130,16.4
132,17.5
136,10.0
137,10.8
146,19.7
147,31.3
148,8.6
149,11.2
155,18.1
157,18.5
158,16.8
160,12.5
162,4.0
163,15.2
164,22.9
165,22.9
167,23.6
169,24.0
170,4.9
178,15.9
184,14.0
186,9.5
188,21.0
193,13.9
199,13.3
201,26.5
202,10.9
205,12.4
209,13.3
210,17.1
211,23.0
212,4.8
213,11.9
214,22.2
216,15.9
220,5.6
224,8.9
225,10.2
226,22.6
228,6.3
229,13.3
230,18.6
231,23.0
232,24.8
234,10.5
235,6.4
236,23.7
238,27.7
239,8.2
241,6.3
242,5.6
244,13.9
246,12.3
248,18.5
249,9.5
251,17.6
255,3.6
256,23.8
258,6.7
260,10.8
261,15.9
263,8.6
264,15.5
267,22.0
270,10.8
272,2.0
273,24.8
275,16.9
276,6.9
280,3.0
284,19.3
285,3.1
289,10.8
294,14.5
295,19.3
296,16.1
297,8.2
298,17.5
299,14.3
300,5.6
305,23.7
306,21.3
308,4.8
309,10.8
310,11.0
313,27.6
314,8.2
316,5.9
317,27.0
318,22.5
319,5.6
321,25.8
322,3.2
329,13.3
330,7.5
338,19.7
339,8.2
341,20.7
344,21.8
345,12.5
348,17.4
349,13.3
351,24.6
357,17.5
359,8.2
363,18.8
365,2.4
366,27.2
367,11.3
368,15.9
369,9.6
371,16.5
372,21.9
374,7.0
375,13.4
376,16.1
377,24.0
378,10.8
381,27.8
382,13.2
383,16.8
384,15.1
385,14.5
387,20.7
388,2.5
389,8.2
391,5.1
393,14.3
395,12.8
396,18.7
399,10.8
404,2.9
408,4.9
409,13.3
410,21.5
412,13.1
414,25.1
416,5.2
418,8.0
419,3.0
421,25.9
424,9.9
428,27.2
429,10.8
432,5.4
433,17.5
435,3.1
439,3.0
440,14.6
446,19.3
448,10.8
451,26.8
452,16.5
459,5.6
461,26.2
462,23.3
465,11.7
468,13.3
469,9.8
470,3.0
471,5.7
473,22.2
475,5.0
478,25.7
479,8.2
480,17.9
481,13.3
484,14.4
485,10.2
486,13.1
487,6.6
488,13.3
489,26.4
491,6.7
495,17.8
498,8.2
499,10.6
500,7.6
503,18.5
507,15.9
508,19.2
509,13.4
512,2.8
513,15.0
514,14.5
515,12.1
518,8.2
521,16.1
522,19.8
524,10.5
525,17.5
526,17.6
528,18.5
530,10.5
532,4.5
534,23.4
536,8.0
538,10.8
540,7.9
541,2.2
546,23.6
547,27.2
548,10.8
549,9.5
557,20.9
559,5.6
560,7.7
561,6.3
565,23.6
568,10.8
569,25.4
573,3.5
575,21.3
578,5.6
579,12.3
580,19.1
581,26.6
584,26.2
586,3.8
587,10.8
591,20.6
593,14.3
594,26.0
595,18.6
596,18.5
597,14.0
599,8.2
601,6.1
602,22.1
603,15.9
608,13.3
612,16.2
613,8.4
616,11.0
618,8.2
619,10.3
620,19.6
621,16.4
622,6.4
623,17.2
624,9.9
627,15.9
628,19.7
629,11.0
631,20.5
637,8.2
638,10.1
642,12.6
643,27.4
644,10.5
646,11.6
647,15.9
651,4.2
652,3.7
654,10.7
656,3.4
658,10.8
664,24.1
667,3.2
668,10.8
670,10.0
671,4.4
672,13.7
673,10.0
675,14.3
677,21.9
678,3.0
680,18.6
681,11.3
682,5.7
683,13.4
684,15.8
687,21.3
688,10.8
690,21.0
694,4.9
697,22.5
698,5.6
699,14.0
703,11.3
704,9.8
705,23.0
707,13.3
708,16.8
709,7.2
710,9.5
711,25.4
714,7.3
715,10.7
717,3.0
721,14.7
723,15.9
724,7.8
726,5.2
728,13.3
729,7.7
730,4.2
731,22.5
737,19.9
738,8.2
744,8.2
745,18.8
747,13.3
751,25.9
753,27.5
754,13.1
755,3.0
757,10.8
758,14.3
763,15.9
764,6.6
765,25.8
766,3.8
768,8.2
769,22.7
774,14.5
775,14.4
776,2.3
777,8.2
778,23.5
779,13.3
781,10.2
783,3.6
784,6.7
785,13.6
786,18.5
788,9.9
790,10.5
791,19.2
797,10.8
798,26.1
800,21.0
801,14.5
805,23.0
807,8.2
809,15.3
810,4.6
811,16.7
812,4.8
817,13.3
818,13.0
821,14.4
822,9.6
827,10.8
829,24.6
832,14.9
835,21.1
837,5.6
839,13.5
840,11.9
842,6.2
845,23.0
846,13.3
847,17.3
850,3.7
851,10.1
852,7.5
854,12.3
857,17.3
858,5.6
859,17.0
862,25.1
864,18.4
866,13.2
867,13.3
869,27.3
870,10.9
872,17.8
876,17.0
877,8.2
879,22.5
880,19.9
884,4.9
886,15.9
888,15.8
892,16.4
893,14.5
894,17.0
895,15.8
896,8.1
897,8.2
899,26.2
901,20.4
904,6.3
906,15.9
907,20.3
910,16.0
911,12.6
914,15.6
916,10.8
921,25.5
922,6.4
924,9.7
927,8.2
928,9.2
929,26.4
933,22.2
934,9.7
935,21.5
936,10.8
937,25.4
941,19.4
945,20.8
947,10.8
948,17.2
950,13.4
952,16.6
955,24.8
957,3.0
959,23.4
961,25.1
962,10.5
966,13.3
968,20.5
970,11.1
972,15.5
974,26.6
976,5.6
981,21.3
982,23.9
985,3.3
986,13.3
989,5.7
991,13.5
993,17.2
997,8.2
998,21.0
999,17.8
1000,25.3
1001,24.0
1002,23.8
1003,23.3
1006,13.3
1007,9.8
1008,16.1
1009,18.6
1010,25.6
1016,13.7
1017,0.5
1018,4.1
1020,2.4
1022,10.5
1024,17.1
1025,9.8
1026,27.1
1028,0.5
1031,26.1
1032,23.1
1034,22.5
1036,22.7
1037,7.4
1038,0.5
1039,14.9
1040,24.7
1041,15.6
1042,12.2
1048,-7.2
1049,15.6
1051,4.2
1052,20.9
1060,39.1
1062,18.6
1063,7.5
1066,15.1
1067,21.6
1072,-12.4
1073,24.1
1075,5.0
1076,4.1
1078,8.4
1079,27.6
1080,14.8
1084,23.6
1086,16.0
1087,9.2
1090,25.8
1092,17.0
1093,25.1
1095,10.8
1097,2.6
1098,22.7
1100,19.1
1102,24.5
1106,5.6
1111,23.9
1115,16.9
1117,-2.1
1121,24.0
1122,23.7
1124,13.6
1127,17.0
1128,11.6
1129,-9.8
1131,5.8
1134,24.4
1135,26.0
1138,17.2
1139,7.7
1140,39.1
1143,22.5
1144,4.3
1145,23.6
1148,10.1
1149,15.1
1152,0.5
1153,21.5
1154,21.6
1158,14.1
1160,21.5
1161,22.0
1162,36.5
1164,19.4
1166,7.1
1167,19.5
1172,2.5
1173,18.5
1174,21.4
1178,5.2
1180,8.3
1181,17.2
1183,2.3
1184,18.5
1185,26.9
1187,15.8
1189,24.2
1190,27.6
1191,10.0
1193,18.8
1194,10.2
1196,5.2
1197,3.0
1198,20.8
1199,3.1
1200,3.5
1201,15.8
1206,23.5
1207,3.0
1210,22.7
1212,24.2
1214,20.6
1215,3.1
1217,-2.1
1218,10.5
1219,24.9
1221,9.8
1222,20.6
1223,7.4
1228,-9.8
1229,3.8
1230,10.9
1231,20.1
1233,22.5
1234,14.9
1238,11.9
1240,41.6
1241,12.5
1247,25.8
1249,4.1
1250,19.9
1251,5.6
1252,15.3
1253,17.6
1255,16.8
1257,7.4
1259,8.3
1260,18.1
1262,33.9
1266,20.3
1268,18.3
1269,16.2
1272,27.4
1273,18.5
1275,27.4
1277,23.9
1279,13.2
1280,11.5
1285,15.9
1288,26.8
1289,13.7
1290,8.4
1292,18.9
1296,0.5
1297,24.4
1301,23.3
1306,0.5
1308,8.2
1311,14.7
1315,6.8
1316,-2.1
1318,11.0
1319,24.8
1320,4.6
1323,9.5
1325,12.2
1326,19.6
1329,-12.4
1330,3.1
1340,5.5
1341,39.1
1342,15.2
1352,18.5
1357,8.2
1358,14.6
1359,13.9
1361,24.2
1363,18.5
1365,16.2
1367,13.0
1368,21.9
1369,11.8
1371,2.1
1372,25.8
1374,9.7
1375,5.6
1376,15.6
1381,11.8
1383,8.6
1385,5.6
1386,3.8
1387,20.3
1390,12.7
1391,2.9
1392,4.7
1394,28.0
1396,-2.1
1401,14.0
1403,26.7
1406,18.5
1408,-7.2
1413,7.3
1414,15.9
1418,23.3
1419,39.1
1420,25.9
1423,12.6
1424,8.9
1425,27.4
1426,27.0
1430,-4.7
1431,3.0
1432,19.4
1436,16.2
1438,5.5
1439,27.5
1441,28.8
1442,2.2
1443,5.7
1444,12.9
1445,13.0
1447,26.3
1450,15.2
1451,4.7
1452,18.5
1453,15.9
1454,19.6
1459,13.8
1461,15.8
1462,17.1
1464,17.4
1465,10.8
1468,22.7
1473,26.1
1476,-4.7
1478,17.0
1479,17.0
1481,3.2
1484,14.9
1485,8.8
1486,21.7
1487,-7.2
1489,25.9
1493,24.4
1494,18.3
1495,20.0
1499,41.6
1506,2.1
1508,6.5
1509,15.1
1510,5.6
1511,21.9
1513,9.2
1515,18.0
1516,13.8
1518,9.0
1520,33.9
1525,10.3
1528,27.0
1530,4.9
1531,20.4
1532,18.5
1533,23.6
1535,21.9
1537,16.0
1540,25.2
1543,5.5
1544,15.9
1545,14.8
1547,13.8
1548,25.1
1549,2.6
1550,27.2
1554,23.0
1555,0.5
1556,27.0
1561,27.6
1562,22.5
1563,21.7
1564,23.8
1565,3.0
1570,23.3
1575,-4.7
1577,22.2
1578,21.9
1580,2.9
1581,9.9
1583,7.4
1584,15.1
1586,15.6
1587,-12.4
1588,3.7
1591,14.8
1592,16.3
1595,13.5
1596,21.4
1597,27.0
1600,39.1
1604,7.8
1605,8.1
1609,12.5
1610,21.8
1611,18.5
1617,13.7
1618,23.6
1620,4.5
1623,18.5
1628,20.7
1629,17.7
1630,18.2
1633,4.9
1634,5.6
1636,26.7
1637,7.0
1638,23.5
1640,24.7
1641,27.2
1643,6.8
1644,5.6
1651,5.3
1652,5.5
1653,8.9
1654,6.3
1655,0.5
1657,3.0
1660,8.8
1661,19.0
1662,6.4
1666,0.5
1667,24.6
1669,25.3
1670,17.9
1671,20.8
1673,11.3
1675,14.0
1676,5.6
1680,2.2
1682,21.7
1683,3.7
1685,3.5
1686,-7.2
1688,19.9
1689,19.9
1691,23.8
1692,9.1
1696,16.7
1697,39.1
1698,6.1
1700,11.7
1703,22.3
1704,23.8
1705,18.7
1706,3.5
1709,-4.7
1710,14.6
1711,18.0
1712,4.6
1714,18.5
1720,31.3
1721,5.8
1722,21.5
1723,16.1
1724,14.1
1725,17.3
1727,21.1
1730,14.3
1731,21.4
1732,18.5
1733,27.6
1734,24.5
1736,16.9
1738,7.3
1740,6.6
1743,13.3
1744,4.0
1745,14.9
1747,9.8
1749,5.7
1753,9.5
1755,-4.7
1756,8.9
1760,25.1
1761,18.8
1762,7.6
1764,12.9
1766,-12.4
1767,4.8
1774,23.5
1775,3.3
1778,39.1
1780,7.0
1785,11.9
1790,15.9
1792,13.2
1794,19.9
1795,7.6
1796,14.3
1798,5.9
1800,12.4
1801,20.1
1802,21.0
1803,6.4
1809,26.3
1810,5.9
1811,2.9
1812,17.5
1813,10.8
1815,22.3
1817,8.1
1818,25.2
1819,12.8
1821,5.5
1824,3.0
1829,16.9
1835,-4.7
1837,7.1
1838,26.9
1839,17.2
1842,2.3
1843,14.1
1845,17.7
1846,-12.4
1847,2.8
1848,4.5
1850,8.3
1852,10.7
1855,22.7
1859,39.1
1862,27.1
1863,2.7
1864,14.0
1865,18.0
1866,4.3
1869,21.6
1870,18.5
1873,2.9
1876,13.7
1877,6.2
1879,4.8
1882,18.5
1883,16.1
1885,11.9
1886,3.1
1887,15.2
1888,25.0
1892,19.0
1893,5.6
1894,14.9
1895,6.8
1899,2.6
1902,23.4
1903,5.6
1905,10.2
1907,26.0
1908,22.1
1909,21.3
1911,22.6
1913,-2.1
1914,28.0
1915,4.9
1916,6.3
1919,23.0
1926,-7.2
1928,27.1
1930,14.3
1935,2.2
1936,8.7
1937,39.1
1940,8.4
1943,3.4
1947,27.4
1948,-2.1
1949,23.5
1953,21.7
1954,9.6
1958,22.4
1959,31.3
1960,25.5
1964,6.8
1968,5.7
1971,15.9
1973,18.8
1980,2.4
1981,10.9
1982,10.8
1983,7.6
1984,17.3
1986,21.6
1991,5.7
1992,21.0
1994,-2.1
2000,26.3
2002,21.0
2003,17.2
2006,-12.4
2008,9.9
2009,23.4
2011,22.7
2012,14.3
2014,6.7
2018,36.5
2020,18.0
2023,7.4
2024,6.7
2026,18.7
2027,11.2
2028,4.5
2029,18.5
2030,26.0
2031,14.2
2033,4.1
2034,14.1
2036,23.3
2038,20.7
2040,18.5
2043,2.6
2046,27.2
2047,5.5
2049,26.6
2050,23.5
2052,8.2
2056,11.3
2059,16.0
2063,8.2
2065,4.9
2067,3.0
2068,4.7
2069,16.9
2072,4.9
2073,0.5
2074,26.8
2075,16.0
2080,26.0
2082,4.4
2083,0.5
2085,22.9
2087,16.1
2088,12.5
2090,21.7
2091,9.4
2092,17.8
2094,-2.1
2095,15.9
2096,12.8
2097,14.5
2098,13.1
2101,24.8
2102,27.5
2104,19.5
2105,-12.4
2107,5.3
2108,14.1
2109,28.0
2113,25.6
2114,15.0
2115,9.0
2117,36.5
2118,13.9
2119,2.6
2121,21.5
2122,13.4
2123,19.1
2124,27.4
2125,27.4
2126,4.8
2129,18.5
2130,2.8
2133,9.6
2137,24.0
2138,5.4
2139,13.4
2140,3.1
2141,18.5
2142,12.5
2144,21.2
2145,21.9
2146,26.3
2149,22.0
2151,26.5
2152,5.6
2153,7.2
2154,17.8
2156,21.0
2159,5.3
2161,7.1
2162,3.0
2163,10.5
2164,8.0
2169,16.0
2172,-2.1
2173,15.3
2174,9.0
2175,26.6
2178,3.0
2182,6.1
2183,7.8
2184,-7.2
2190,27.1
2192,12.7
2195,9.1
2196,39.1
2197,6.9
2201,20.6
2203,2.3
2207,0.5
2208,3.7
2211,6.3
2214,21.3
2215,14.8
2216,26.4
2217,36.5
2218,5.9
2220,2.4
2222,25.5
2224,2.0
2227,7.4
2229,18.5
2235,7.7
2238,3.6
2240,18.5
2241,2.5
2242,15.5
2245,8.5
2246,9.6
2248,20.6
2250,12.5
2251,3.0
2252,8.2
2254,4.9
2256,2.1
2258,15.4
2259,16.9
2260,22.2
2261,28.0
2262,5.2
2263,3.0
2265,5.1
2268,22.8
2270,2.6
2271,26.8
2273,-2.1
2276,24.1
2278,12.0
2279,21.6
2280,18.3
2281,23.3
2283,5.6
2284,-9.8
2286,14.9
2289,26.3
2290,21.3
2291,17.1
2292,15.8
2293,22.1
2295,41.6
2296,20.9
2298,21.2
2301,18.1
2302,12.1
2304,16.1
2305,21.1
2307,3.0
2308,9.8
2314,27.7
2317,33.9
2319,26.7
2320,26.5
2323,24.5
2324,16.2
2325,14.5
2326,8.7
2327,8.4
2328,3.3
2329,18.5
2331,26.0
2335,23.2
2336,27.3
2337,15.4
2339,19.8
2340,13.3
2341,8.5
2343,5.1
2344,4.5
2347,23.7
2348,26.8
2351,4.1
2352,3.0
2355,4.5
2361,24.9
2362,0.5
2364,10.3
2366,19.2
2367,16.4
2369,11.6
2370,8.7
2371,15.0
2372,-2.1
2373,21.7
2378,27.0
2380,10.0
2381,27.3
2382,6.9
2383,-12.4
2386,8.8
2393,24.0
2397,39.1
2398,2.3
2399,11.4
2400,10.4
2406,8.2
2408,18.5
2410,12.7
2416,2.8
2417,10.4
2418,26.5
2419,18.5
2422,17.8
2424,8.5
2425,17.1
2429,20.3
2430,8.2
2431,24.4
2434,13.2
2436,5.9
2437,3.4
2439,3.5
2441,5.6
2447,5.6
2448,24.9
2449,20.7
2451,0.5
2452,23.1
2453,20.4
2454,16.0
2455,4.4
2456,15.2
2458,25.9
2462,0.5
2464,19.0
2466,15.3
2467,17.5
2468,21.9
2470,27.2
2472,3.0
2473,5.9
2480,25.2
2483,-7.2
2489,5.7
2492,15.8
2494,39.1
2497,15.0
2501,3.8
2503,8.8
2505,-7.2
2510,10.4
2511,5.5
2512,7.9
2514,25.7
2516,33.9
2517,18.6
2519,7.0
2522,10.1
2523,26.7
2524,7.8
2526,27.9
2527,2.5
2529,15.9
2536,9.7
2537,6.1
2540,10.8
2546,4.5
2547,22.1
2550,26.7
2551,-2.1
2558,16.3
2559,10.6
2560,16.3
2562,19.9
2563,-9.8
2567,26.4
2573,18.3
2574,41.6
2577,22.4
2580,27.3
2581,11.0
2582,2.5
2584,19.3
2585,0.5
2586,25.2
2587,5.0
2590,2.8
2591,14.1
2594,6.5
2596,33.9
2597,3.4
2599,13.1
2601,2.6
2607,4.2
2608,18.5
2609,16.6
2611,15.6
2613,13.9
2614,2.8
2619,15.9
2620,20.8
2625,21.4
2629,6.6
2630,3.0
2633,27.6
2634,5.3
2636,21.1
2638,26.1
2639,13.1
2640,0.5
2641,11.1
2643,5.3
2644,19.0
2645,8.9
2648,15.8
2651,-4.7
2652,11.7
2653,14.9
2655,13.2
2656,21.5
2658,7.8
2660,23.2
2661,25.2
2663,-9.8
2664,25.7
2666,21.6
2669,10.1
2671,20.9
2674,39.1
2678,27.2
2679,9.9
2681,6.6
2682,5.8
2683,13.4
2685,5.6
2687,27.7
2688,24.2
2692,9.8
2694,23.5
2695,2.7
2696,33.9
2700,18.2
2702,10.7
2705,2.2
2706,15.0
2707,18.5
2708,21.3
2709,18.3
2710,7.3
2711,21.0
2714,14.8
2718,15.9
2719,5.9
2720,8.1
2724,16.5
2725,13.0
2727,14.8
2730,12.7
2731,0.5
2733,6.4
2734,26.4
2735,21.7
2736,21.5
2737,5.3
2740,13.9
2741,0.5
2743,26.8
2744,12.3
2745,27.7
2746,15.2
2749,24.0
2751,-4.7
2753,20.3
2755,12.1
2762,-15.0
2763,11.1
2764,20.2
2766,12.4
2767,6.0
2771,5.4
2772,27.6
2773,26.9
2774,18.2
2775,36.5
2776,13.5
2778,27.9
2779,24.2
2783,13.5
2784,24.3
2786,18.5
2789,9.0
2796,18.2
2798,18.5
2801,14.3
2803,23.6
2804,19.2
2805,17.0
2806,18.6
2808,11.4
2809,5.6
2811,2.9
2812,27.3
2815,4.8
2818,15.3
2819,15.0
2820,5.6
2821,14.6
2824,9.8
2827,5.8
2828,8.1
2830,0.5
2831,24.5
2833,23.1
2835,10.0
2837,10.0
2838,12.9
2839,21.2
2840,0.5
2843,11.8
2848,6.0
2849,4.9
2850,5.6
2852,4.3
2854,22.6
2855,13.3
2856,8.6
2857,21.2
2859,11.3
2861,11.3
2862,-7.2
2864,16.9
2867,6.5
2868,27.2
2873,39.1
2875,19.2
2878,9.2
2879,9.4
2883,23.3
2884,-7.2
2885,21.9
2886,4.6
2887,20.5
2888,14.8
2889,7.1
2890,16.3
2892,15.8
2893,14.1
2895,33.9
2898,2.1
2901,19.4
2902,8.1
2905,7.9
2907,15.9
2911,19.6
2913,22.5
2915,15.0
2916,24.5
2918,10.8
2921,23.0
2924,20.8
2926,15.7
2927,9.2
2928,22.8
2929,16.0
2930,-2.1
2934,27.8
2936,12.5
2937,24.5
2938,2.5
2940,24.0
2941,-9.8
2943,23.2
2944,27.8
2947,6.7
2949,6.2
2952,24.8
2953,41.6
2954,10.1
2959,19.1
2960,9.3
2964,3.0
2965,22.9
2967,6.8
2970,24.4
2971,5.1
2972,12.4
2973,10.1
2974,36.5
2975,21.3
2976,15.7
2978,2.1
2979,26.6
2981,14.9
2982,4.6
2985,18.5
2998,13.3
3009,0.5
3011,21.0
3012,24.7
3014,12.0
3015,27.7
3016,7.3
3019,0.5
3020,3.6
3022,20.2
3024,4.7
3025,13.6
3026,23.5
3028,18.2
3029,25.7
3030,-4.7
3031,3.3
3032,4.3
3033,9.2
3034,26.4
3036,7.5
3037,25.9
3038,14.3
3039,5.0
3040,4.8
3041,-12.4
3043,19.9
3045,21.4
3048,17.3
3051,14.1
3053,19.0
3054,39.1
3055,12.8
3057,22.3
3059,4.7
3060,18.4
3061,12.1
3062,26.1
3063,21.8
3065,15.9
3066,26.4
3069,19.8
3070,18.0
3073,21.5
3076,3.3
3077,18.5
3078,15.2
3080,4.6
3085,18.8
3088,5.6
3089,24.0
3091,18.5
3095,23.4
3098,5.6
3099,10.5
3102,11.5
3103,2.2
3106,5.1
3108,0.5
3111,7.4
3113,13.4
3118,7.8
3120,0.5
3121,15.8
3122,20.4
3123,2.6
3129,26.0
3130,3.0
3133,16.5
3135,19.6
3137,23.8
3138,15.6
3140,-7.2
3143,2.1
3144,5.6
3145,14.2
3146,21.8
3147,20.6
3151,39.1
3152,14.2
3153,26.6
3157,4.8
3159,2.7
3160,19.9
3162,4.9
3163,-9.8
3165,18.0
3166,27.4
3167,6.0
3168,25.2
3169,19.6
3170,24.9
3171,17.3
3172,27.7
3173,8.5
3174,31.3
3175,14.8
3176,5.1
3178,7.1
3179,10.8
3180,7.9
3185,15.9
3186,13.6
3187,12.9
3188,24.4
3190,25.4
3191,2.2
3193,22.8
3195,16.2
3196,19.5
3197,10.8
3199,20.6
3201,11.5
3202,11.1
3206,24.5
3208,15.0
3209,-2.1
3212,2.4
3214,18.9
3218,19.4
3219,9.6
3220,-7.2
3221,22.8
3222,5.5
3223,24.8
3228,27.1
3229,6.2
3230,23.4
3231,39.1
3234,12.2
3236,3.0
3237,27.8
3239,17.7
3240,21.8
3243,0.5
3244,16.3
3245,24.0
3247,8.7
3248,19.3
3249,2.5
3251,22.8
3254,33.9
3256,19.7
3258,11.3
3263,13.4
3264,19.9
3265,18.5
3269,8.4
3271,24.1
3273,25.8
3274,11.5
3275,21.5
3276,15.9
3278,24.8
3279,5.7
3281,10.4
3283,21.1
3285,23.8
3286,25.3
3287,23.4
3288,3.0
3289,12.1
3290,2.1
3291,26.1
3292,7.7
3293,11.5
3298,3.0
3299,27.5
3300,26.8
3301,18.9
3302,21.9
3304,25.2
3305,6.1
3308,-4.7
3309,24.1
3310,20.3
3311,20.1
3313,18.1
3314,24.5
3315,17.0
3316,9.5
3317,24.2
3320,-9.8
3321,15.1
3323,7.7
3324,2.3
3326,25.7
3327,21.2
3328,17.6
3332,41.6
3334,23.0
3337,23.2
3338,10.2
3340,7.9
3342,5.8
3343,5.6
3344,11.6
3353,33.9
3355,3.9
3360,14.4
3364,18.5
3365,11.5
3369,23.0
3376,15.9
3377,16.3
3384,12.1
3385,9.6
3387,20.5
3388,3.0
3392,8.4
3393,19.4
3397,26.3
3398,3.0
3399,24.4
3400,8.0
3404,16.3
3405,4.4
3407,10.5
3408,-4.7
3409,23.3
3411,24.9
3414,9.2
3415,15.0
3417,8.7
3420,-15.0
3422,27.8
3424,14.8
3427,23.3
3431,17.2
3432,39.1
3436,13.0
3439,26.9
3440,10.3
3443,18.5
3446,8.4
3450,10.8
3451,21.4
3452,25.8
3453,4.9
3454,16.2
3455,4.0
3456,18.5
3457,13.7
3458,14.8
3460,23.0
3466,5.5
3467,5.6
3469,17.4
3470,21.9
3471,14.9
3472,4.6
3473,11.4
3474,6.0
3475,24.2
3477,5.6
3479,18.6
3483,21.8
3485,23.1
3487,-2.1
3490,14.0
3492,7.9
3493,12.0
3496,6.0
3497,22.5
3499,-7.2
3502,13.3
3503,21.2
3509,27.8
3510,39.1
3512,22.1
3514,13.0
3515,14.0
3519,5.7
3520,11.3
3521,13.5
3522,-2.1
3524,2.7
3532,7.3
3533,31.3
3534,23.5
3538,14.1
3539,11.4
3541,22.9
3544,21.6
3545,15.9
3547,14.5
3548,27.9
3550,21.6
3552,14.5
3554,20.8
3555,7.6
3556,10.8
3558,14.7
3560,10.0
3565,7.9
3566,2.4
3567,-4.7
3569,6.8
3571,13.5
3578,-9.8
3580,23.4
3582,23.9
3585,15.1
3586,10.4
3589,13.9
3590,6.7
3591,41.6
3592,3.3
3599,16.6
3600,10.6
3602,8.2
3606,22.0
3607,12.3
3608,15.7
3609,27.5
3612,33.9
3614,25.2
3616,6.8
3618,15.4
3621,9.8
3622,3.2
3623,18.5
3625,12.8
3627,8.5
3632,2.3
3635,13.3
3637,19.0
3638,11.8
3641,7.4
3646,0.5
3647,14.4
3649,3.8
3653,23.7
3655,7.4
3656,10.8
3657,0.5
3658,20.9
3659,27.1
3660,12.4
3662,12.9
3667,-2.1
3668,5.6
3669,17.7
3671,7.7
3672,15.8
3673,20.8
3674,23.7
3677,17.8
3679,-12.4
3680,12.6
3682,19.5
3683,2.8
3685,8.8
3687,25.9
3689,15.6
3691,39.1
3694,12.2
3699,19.7
3702,18.5
3703,6.6
3709,20.0
3710,22.3
3713,22.2
3714,21.0
3716,8.8
3719,11.0
3720,2.7
3722,15.6
3725,23.7
3726,5.6
3727,22.1
3729,14.3
3730,17.0
3732,21.3
3735,26.9
3736,5.6
3742,10.5
3744,24.2
3746,-2.1
3747,13.2
3750,8.7
3751,2.2
3758,-9.8
3760,7.0
3761,19.1
3763,10.4
3764,13.7
3766,21.2
3767,15.0
3768,24.9
3769,39.1
3770,15.0
3771,10.8
3773,8.6
3774,13.3
3775,4.0
3778,20.3
3779,2.7
3780,-2.1
3786,23.6
3787,15.7
3789,5.8
3790,6.7
3791,7.5
3792,28.8
3793,12.5
3794,23.8
3795,13.8
3796,7.4
3798,3.6
3800,6.6
3803,26.5
3804,15.9
3808,5.8
3814,4.7
3815,8.2
3816,21.8
3820,23.7
3821,23.6
3822,18.9
3823,14.7
3824,17.8
3825,3.0
3828,27.2
3830,4.8
3833,6.3
3834,22.3
3835,3.0
3837,6.1
3838,25.0
3839,11.7
3841,9.5
3842,23.8
3843,12.5
3846,-4.7
3847,16.4
3848,2.8
3850,6.6
3851,4.7
3855,13.0
3856,17.0
3858,-9.8
3861,7.4
3866,24.3
3867,6.7
3868,2.8
3869,39.1
3871,6.7
3872,12.7
3876,27.0
3880,3.0
3881,16.8
3883,16.3
3886,4.5
3889,27.5
3890,8.9
3891,33.9
3892,19.6
3896,9.0
3897,23.5
3902,18.5
3903,3.6
3904,16.2
3906,24.6
3909,13.7
3910,25.0
3913,15.9
3914,21.7
3915,26.0
3917,23.0
3918,4.1
3919,26.0
3923,13.6
3924,22.2
3926,3.0
3928,25.1
3929,19.8
3931,26.5
3932,9.6
3935,7.2
3936,3.0
3938,6.8
3940,23.7
3941,6.8
3942,25.8
3943,11.8
3945,7.8
3946,-4.7
3948,4.9
3950,23.0
3952,6.2
3953,9.2
3954,13.5
3957,-12.4
3960,27.5
3961,25.8
3963,2.1
3965,7.8
3966,16.6
3969,21.3
3970,39.1
3971,21.7
3973,10.5
3978,3.6
3980,24.9
3981,15.9
3985,18.0
3987,17.9
3990,27.7
3993,18.5
3998,10.5
3999,20.2
4000,7.7
4001,17.7
4003,5.3
4004,5.6
4006,20.2
4008,27.8
4014,14.8
4015,8.2
4022,16.1
4023,4.3
4025,0.5
4029,25.3
4033,5.1
4034,12.1
4035,0.5
4038,11.0
4039,3.2
4041,27.3
4042,16.6
4043,13.2
4045,-2.1
4046,5.3
4047,13.2
4048,12.9
4050,12.3
4051,10.6
4052,6.5
4056,24.4
4058,-12.4
4060,16.4
4061,9.9
4063,27.4
4064,17.3
4070,36.5
4072,8.9
4076,21.5
4078,17.2
4079,2.6
4080,20.8
4081,18.5
4084,15.1
4085,16.2
4091,9.8
4092,21.0
4095,2.1
4098,21.5
4099,27.8
4103,21.6
4104,5.6
4109,24.0
4111,2.6
4112,3.2
4113,2.3
4114,5.6
4122,20.6
4124,4.7
4125,-2.1
4129,27.0
4132,24.0
4136,-9.8
4137,17.5
4138,6.3
4139,22.1
4140,25.5
4143,22.2
4146,26.6
4148,39.1
4149,24.9
4150,8.2
4153,2.8
4156,8.7
4157,16.9
4159,-2.1
4160,2.9
4162,7.9
4165,25.4
4166,11.1
4170,28.8
4171,7.0
4173,7.4
4178,2.2
4182,15.9
4185,6.4
4187,11.3
4188,3.1
4192,23.0
4194,10.8
4204,25.6
4205,-4.7
4206,22.9
4213,10.9
4215,27.3
4216,-12.4
4219,5.0
4220,25.0
4222,7.9
4226,10.8
4227,10.5
4228,20.7
4229,36.5
4234,25.3
4236,7.9
4237,12.5
4238,15.1
4240,18.5
4245,16.4
4246,16.6
4250,20.1
4252,21.0
4255,7.4
4257,7.0
4258,22.2
4259,7.0
4262,6.2
4263,5.6
4264,24.1
4266,12.2
4274,5.6
4275,6.2
4276,13.1
4280,2.2
4282,16.0
4283,11.0
4284,0.5
4285,21.4
4287,16.0
4288,18.8
4290,5.2
4291,23.6
4292,22.5
4294,0.5
4301,21.6
4304,0.5
4305,4.4
4306,24.9
4307,3.5
4308,22.3
4310,21.5
4311,12.2
4312,25.6
4315,-7.2
4316,17.9
4319,18.0
4320,26.7
4321,5.1
4327,36.5
4328,8.3
4329,14.9
4330,7.2
4331,14.5
4332,10.0
4333,11.7
4334,6.2
4335,25.6
4336,12.0
4338,-9.8
4339,17.5
4340,24.5
4341,18.7
4344,16.7
4345,25.4
4346,10.9
4348,27.6
4349,33.9
4353,4.5
4354,5.4
4355,12.3
4356,4.0
4358,8.0
4361,15.9
4365,14.5
4368,8.0
4369,12.4
4370,26.5
4371,24.2
4372,10.8
4374,9.1
4376,10.3
4377,19.4
4380,15.2
4381,25.9
4383,8.5
4384,0.5
4386,4.7
4387,25.5
4392,20.2
4393,25.1
4394,13.1
4395,-2.1
4396,13.7
4398,21.9
4399,2.7
4401,16.8
4402,6.1
4404,21.3
4406,31.3
4407,15.9
4408,9.0
4409,24.7
4412,9.0
4414,7.0
4415,20.3
4417,-22.7
4421,3.6
4427,20.0
4429,28.8
4433,24.4
4437,11.2
4438,10.3
4441,13.3
4442,9.0
4443,20.7
4445,5.6
4446,17.1
4452,4.7
4453,8.2
4454,8.2
4456,23.9
4459,15.5
4462,13.5
4463,3.0
4470,25.9
4471,14.0
4473,3.0
4475,5.6
4480,14.1
4482,27.3
4484,-4.7
4489,11.7
4491,21.3
4493,24.4
4495,-12.4
4498,6.0
4499,4.4
4500,16.2
4503,20.4
4504,8.6
4507,39.1
4508,22.7
4509,10.4
4510,26.2
4519,15.9
4521,22.6
4523,17.4
4527,21.1
4531,21.0
4535,27.2
4536,9.9
4537,16.1
4538,14.8
4539,13.2
4540,18.5
4541,23.6
4542,8.2
4546,7.2
4547,7.4
4548,8.1
4549,6.4
4551,17.3
4552,8.2
4553,16.5
4554,11.2
4555,11.3
4559,18.1
4560,3.5
4562,0.5
4565,10.8
4567,20.6
4568,19.3
4569,27.0
4571,9.1
4572,25.0
4573,0.5
4575,10.7
4576,15.1
4577,22.4
4578,21.1
4581,15.8
4583,23.6
4584,-4.7
4586,16.1
4587,27.3
4588,10.3
4589,13.4
4590,22.6
4592,5.5
4593,22.5
4594,2.5
4595,-12.4
4597,15.2
4599,12.3
4600,5.3
4603,17.2
4604,6.4
4606,9.9
4607,7.6
4608,39.1
4609,22.3
4612,24.7
4614,21.2
4615,4.1
4617,17.2
4618,6.4
4619,18.5
4621,6.1
4622,6.8
4625,11.1
4626,21.6
4627,15.9
4629,11.2
4630,18.5
4635,22.7
4636,26.3
4640,12.5
4641,5.6
4643,21.7
4650,27.7
4653,5.6
4654,13.6
4655,16.4
4658,6.9
4661,21.8
4662,24.9
4663,0.5
4667,18.8
4668,4.4
4670,26.6
4671,22.6
4672,8.4
4673,0.5
4674,9.1
4675,9.5
4677,16.9
4678,17.4
4679,22.5
4682,17.7
4683,5.6
4685,19.0
4687,12.3
4688,23.6
4690,13.5
4691,5.5
4692,12.4
4693,8.8
4694,-7.2
4696,23.6
4697,10.9
4698,23.8
4700,27.0
4704,11.4
4705,39.1
4706,7.0
4708,3.7
4709,23.7
4716,18.8
4717,-7.2
4718,2.5
4719,8.0
4720,3.9
4721,21.2
4722,4.2
4723,7.7
4725,11.6
4728,31.3
4729,7.2
4730,18.1
4732,5.5
4733,9.7
4734,14.1
4736,4.3
4739,17.4
4740,15.9
4741,11.9
4745,2.2
4749,3.2
4750,27.1
4751,13.3
4752,26.2
4753,5.7
4756,14.6
4757,3.0
4759,12.4
4761,12.4
4762,-2.1
4763,26.0
4765,21.5
4767,23.6
4769,3.4
4770,27.4
4772,24.6
4773,-9.8
4775,12.2
4776,7.7
4778,15.7
4781,26.4
4782,2.3
4783,16.9
4784,7.9
4785,6.5
4786,39.1
4791,9.1
4792,4.3
4794,23.5
4797,3.0
4798,19.1
4804,24.3
4807,36.5
4808,19.5
4811,7.3
4816,24.6
4818,18.5
4820,7.2
4821,12.7
4822,2.3
4823,26.4
4824,18.0
4825,9.4
4826,4.4
4827,13.3
4830,15.9
4833,5.6
4834,7.2
4835,4.6
4837,11.1
4839,25.4
4840,9.5
4841,5.6
4842,25.8
4844,7.1
4845,6.6
4848,14.2
4849,25.3
4850,15.6
4851,14.4
4852,3.0
4853,12.9
4854,25.9
4856,2.8
4857,24.3
4859,7.4
4860,8.5
4862,-2.1
4863,9.6
4864,18.2
4865,3.2
4866,9.2
4867,13.1
4869,3.8
4874,-12.4
4877,10.5
4878,10.8
4879,15.3
4880,13.5
4881,27.9
4885,23.7
4886,39.1
4888,14.9
4889,18.0
4891,6.9
4894,9.8
4896,6.8
4897,15.9
4899,24.9
4900,9.5
4902,7.7
4904,10.0
4907,22.1
4908,4.0
4909,18.5
4910,14.9
4912,7.7
4915,11.0
4921,8.2
4923,22.3
4924,22.7
4925,15.0
4927,12.1
4928,8.6
4931,8.2
4933,16.8
4936,27.9
4937,6.3
4940,24.7
4941,0.5
4942,22.1
4943,11.6
4945,7.9
4949,23.9
4951,5.6
4952,3.0
4955,16.5
4956,3.1
4958,19.9
4960,6.5
4962,-2.1
4964,15.4
4966,21.1
4967,8.9
4969,19.0
4972,27.5
4973,-12.4
4975,2.1
4976,10.8
4979,15.0
4981,10.8
4985,25.0
4986,39.1
4988,14.5
4991,26.5
4993,6.5
4995,12.2
4998,18.5
4999,9.2
5001,10.4
5002,17.3
5003,2.4
5009,18.5
5012,22.8
5013,17.1
5014,7.7
5016,15.9
5019,8.8
5020,5.6
5024,13.1
5025,9.9
5026,24.0
5027,18.5
5030,5.6
5041,-2.1
5042,21.2
5043,9.6
5045,13.8
5047,26.9
5051,15.6
5053,-7.2
5054,9.2
5055,13.9
5063,12.3
5064,39.1
5066,11.8
5075,-2.1
5076,16.1
5082,13.7
5083,18.9
5084,24.3
5085,24.8
5086,8.7
5087,31.3
5088,12.8
5089,14.2
5093,19.7
5094,12.1
5096,8.1
5098,15.9
5100,16.4
5106,23.0
5107,27.1
5108,3.7
5109,10.8
5111,19.1
5115,24.9
5117,4.3
5118,11.7
5119,15.5
5121,17.8
5122,-4.7
5123,2.9
5127,3.6
5128,13.8
5130,26.0
5131,6.3
5133,-12.4
5137,23.9
5140,2.3
5143,15.4
5144,10.7
5145,39.1
5149,20.1
5152,18.9
5155,23.8
5156,18.5
5157,12.0
5159,9.5
5168,21.0
5174,8.1
5175,12.7
5176,24.9
5179,8.2
5181,2.9
5187,25.4
5190,5.6
5195,7.9
5197,8.4
5200,0.5
5202,8.9
5203,13.0
5205,15.2
5208,7.5
5211,0.5
5212,12.3
5214,18.8
5215,19.3
5221,-2.1
5226,2.6
5227,12.5
5229,20.2
5232,-12.4
5235,25.1
5238,5.1
5239,26.3
5241,6.8
5242,6.8
5243,12.7
5244,39.1
5246,24.3
5247,25.7
5249,18.7
5253,22.2
5255,18.0
5257,18.5
5258,22.0
5259,13.8
5260,18.8
5262,13.2
5263,7.7
5265,21.8
5268,18.5
5269,19.6
5270,23.0
5271,3.2
5273,14.2
5274,7.3
5275,12.8
5277,9.9
5279,5.6
5282,23.1
5283,20.1
5285,20.0
5287,24.6
5289,5.6
5290,15.1
5291,14.5
5300,-2.1
5302,12.4
5303,21.3
5304,10.2
5307,27.9
5308,10.4
5309,2.6
5311,-7.2
5313,19.4
5322,9.9
5323,41.6
5324,5.6
5325,23.5
5326,20.1
5327,3.5
5329,18.8
5331,16.6
5333,21.9
5335,-2.1
5336,21.9
5338,16.2
5341,12.4
5342,20.8
5343,2.8
5346,31.3
5348,12.2
5349,6.9
5350,3.6
5355,3.8
5356,21.8
5357,15.9
5358,17.0
5361,27.0
5367,25.3
5368,8.2
5369,2.4
5370,7.0
5372,23.0
5373,17.1
5374,21.9
5375,15.2
5376,18.0
5377,19.5
5379,3.0
5381,16.7
5382,15.9
5388,6.2
5389,5.1
5390,3.0
5393,6.0
5396,20.3
5399,27.1
5400,-2.1
5403,22.0
5404,22.1
5406,8.1
5407,4.4
5411,-9.8
5412,21.2
5415,26.0
5416,15.9
5418,23.4
5419,10.0
5420,8.8
5423,41.6
5424,12.5
5425,9.6
5426,2.8
5428,20.7
5433,17.4
5434,3.0
5437,19.9
5439,19.3
5441,27.3
5443,4.3
5444,33.9
5445,22.0
5446,26.9
5448,9.9
5453,27.7
5455,17.6
5456,18.5
5462,2.5
5467,9.3
5468,15.9
5469,22.2
5472,17.9
5474,12.9
5479,0.5
5480,2.7
5482,11.9
5483,6.7
5487,18.0
5488,23.3
5489,0.5
5490,13.4
5495,2.1
5497,8.7
5499,-2.1
5501,17.8
5504,6.2
5506,28.0
5507,8.0
5508,25.7
5510,21.3
5511,-9.8
5514,9.2
5515,22.4
5516,23.1
5519,20.1
5521,22.4
5522,20.0
5523,41.6
5524,23.4
5525,4.0
5526,20.8
5531,4.9
5534,8.2
5535,14.3
5536,24.4
5538,2.1
5539,18.5
5540,26.8
5541,9.0
5544,33.9
5546,7.8
5547,5.0
5548,25.0
5550,15.7
5551,24.5
5554,21.7
5555,25.9
5556,18.5
5558,4.7
5559,18.9
5562,8.6
5563,22.1
5564,25.9
5565,19.1
5566,25.4
5567,13.3
5570,19.0
5572,4.4
5574,2.0
5578,0.5
5579,26.4
5581,22.1
5582,5.0
5585,3.4
5587,17.6
5590,0.5
5592,6.1
5594,18.4
5596,3.1
5597,24.9
5598,7.3
5600,0.5
5602,15.3
5608,16.0
5610,-4.7
5613,15.5
5614,25.4
5616,27.0
5618,3.7
5620,6.1
5621,39.1
5622,5.9
5624,6.3
5627,26.6
5630,16.3
5631,18.9
5632,22.0
5633,-9.8
5637,23.7
5638,23.9
5639,10.5
5640,26.6
5642,19.2
5643,2.5
5644,33.9
5646,5.8
5647,15.2
5648,17.1
5649,10.8
5656,15.9
5658,16.7
5661,18.7
5662,14.1
5663,9.2
5664,4.0
5666,16.0
5667,13.3
5669,13.0
5671,17.4
5674,4.9
5675,17.6
5678,25.3
5679,-2.1
5680,24.3
5683,6.5
5686,14.3
5687,12.2
5688,2.4
5689,2.9
5690,-9.8
5692,5.5
5693,2.4
5694,18.2
5698,13.9
5699,18.5
5700,22.9
5701,41.6
5702,27.9
5703,13.0
5705,19.5
5706,24.9
5708,9.3
5711,7.7
5712,0.5
5714,22.9
5715,11.9
5717,18.9
5718,18.7
5719,10.7
5720,15.6
5722,23.4
5723,14.6
5724,36.5
5731,2.2
5732,6.6
5733,21.1
5735,18.5
5736,9.7
5737,19.2
5738,19.1
5743,9.8
5744,19.1
5746,15.9
5748,11.7
5751,12.6
5752,2.5
5753,4.3
5754,26.1
5756,26.9
5757,3.0
5759,13.9
5761,8.5
5762,6.7
5768,0.5
5772,25.6
5773,16.8
5774,12.5
5776,23.2
5778,-2.1
5779,20.3
5780,8.5
5781,11.8
5783,21.8
5784,2.0
5787,25.9
5788,9.6
5790,-12.4
5792,11.8
5793,5.5
5794,21.9
5798,19.9
5800,3.1
5802,11.2
5803,39.1
5807,20.2
5808,13.0
5812,15.0
5814,18.5
5815,4.1
5817,15.9
5818,13.4
5820,11.5
5822,26.5
5825,21.0
5826,19.7
5827,27.2
5828,24.7
5830,23.5
5832,9.1
5834,24.8
5836,8.2
5838,15.3
5842,5.8
5844,11.2
5846,20.6
5847,5.6
5851,13.7
5852,15.0
5855,15.5
5856,9.2
5858,3.0
5859,20.5
5861,12.7
5863,28.0
5864,27.0
5866,8.0
5867,3.0
5868,3.0
5870,12.5
5874,14.1
5877,22.2
5878,-4.7
5879,27.2
5884,12.6
5885,17.2
5887,5.4
5888,17.1
5889,16.7
5890,-12.4
5892,14.6
5897,25.7
5898,25.1
5901,25.5
5902,39.1
5903,5.5
5904,3.3
5905,8.7
5906,17.7
5910,12.1
5912,6.3
5913,18.5
5915,12.7
5916,18.1
5918,2.3
5919,12.8
5920,3.9
5922,13.8
5925,21.0
5927,26.2
5931,17.2
5933,6.6
5934,25.2
5936,11.8
5937,5.6
5938,27.6
5942,25.6
5944,26.6
5947,5.6
5948,19.1
5950,6.0
5954,25.8
5956,17.7
5957,0.5
5959,26.7
5964,16.3
5965,7.6
5966,21.5
5967,0.5
5968,21.1
5969,24.5
5970,12.4
5977,15.4
5978,3.0
5979,20.5
5983,13.7
5989,-7.2
5990,6.9
5991,25.8
5997,13.3
5998,9.8
5999,8.4
6000,39.1
6003,15.7
6008,3.3
6009,26.6
6010,23.0
6011,-9.8
6012,25.3
6013,23.1
6014,4.5
6016,7.2
6019,15.7
6023,31.3
6024,6.9
6027,21.9
6028,4.2
6029,27.8
6032,12.5
6034,15.9
6035,2.8
6036,25.3
6038,9.5
6041,3.3
6044,27.5
6045,13.3
6046,20.2
6049,26.2
6051,5.8
6054,18.0
6055,21.4
6057,-2.1
6058,3.8
6059,22.6
6060,21.3
6061,19.2
6062,24.2
6064,24.6
6065,21.0
6066,16.7
6067,7.7
6068,5.1
6069,-9.8
6073,7.3
6080,41.6
6082,23.1
6084,14.9
6086,6.0
6087,18.5
6089,16.1
6091,3.0
6093,5.4
6095,17.4
6096,16.0
6097,18.8
6099,23.7
6102,33.9
6106,12.0
6107,6.2
6108,22.4
6110,26.4
6111,5.5
6113,18.5
6114,25.6
6116,10.6
6117,27.2
6118,18.9
6120,3.4
6121,6.7
6123,10.8
6124,8.0
6125,15.9
6126,16.8
6129,14.6
6130,13.1
6131,17.8
6132,22.8
6133,18.2
6134,8.8
6135,25.5
6136,3.0
6137,12.4
6139,25.8
6141,16.8
6144,27.4
6146,22.2
6147,3.0
6149,26.0
6152,27.5
6153,2.9
6157,-4.7
6158,27.7
6159,11.6
6162,15.9
6163,24.9
6168,-12.4
6169,4.2
6172,19.1
6174,8.4
6178,26.3
6179,13.7
6180,39.1
6183,12.6
6184,4.6
6186,15.7
6188,16.9
6189,27.4
6193,18.5
6194,6.0
6195,21.9
6197,25.8
6198,18.7
6204,21.0
6208,22.1
6209,24.1
6213,2.2
6214,8.4
6215,5.6
6216,26.4
6220,14.8
6221,5.1
6223,6.2
6225,8.2
6231,7.9
6234,3.9
6235,7.0
6236,0.5
6238,19.2
6240,10.2
6242,12.5
6244,2.3
6245,14.9
6246,0.5
6247,14.9
6252,18.7
6255,3.9
6257,-4.7
6258,27.8
6261,11.1
6264,7.9
6265,4.2
6267,17.0
6268,-12.4
6269,19.2
6270,27.1
6275,5.8
6278,10.7
6281,39.1
6282,18.2
6285,23.7
6286,17.5
6289,3.8
6290,7.2
6291,14.6
6292,18.5
6296,7.5
6297,3.0
6298,9.8
6301,6.8
6303,18.5
6307,9.6
6316,5.6
6317,27.9
6322,9.2
6324,13.7
6325,16.3
6326,5.6
6328,2.0
6329,9.0
6330,13.2
6331,13.5
6332,26.9
6333,12.8
6336,0.5
6337,5.3
6339,7.9
6346,0.5
6352,27.6
6353,26.0
6354,25.0
6356,5.6
6357,20.0
6358,14.2
6359,10.4
6360,22.2
6361,17.8
6362,22.4
6363,18.4
6366,27.4
6367,-7.2
6369,19.9
6378,39.1
6380,24.2
6382,27.3
6383,4.3
6384,20.1
6389,27.0
6390,-7.2
6391,6.3
6393,16.0
6399,11.0
6401,9.0
6402,33.9
6403,12.0
6404,27.3
6410,3.0
6411,23.2
6413,15.9
6415,16.5
6421,11.2
6422,2.0
6423,11.0
6424,10.8
6426,21.3
6428,21.0
6430,23.0
6431,10.3
6433,23.7
6435,-2.1
6437,8.8
6438,20.7
6440,18.1
6441,19.4
6443,8.5
6444,19.3
6445,26.0
6446,3.2
6447,14.8
6448,-9.8
6451,14.3
6455,3.3
6456,2.3
6457,8.4
6458,23.6
6459,41.6
6461,2.3
6463,10.1
6464,25.2
6466,5.0
6467,9.2
6468,2.5
6469,21.8
6470,3.0
6471,17.7
6475,22.5
6476,16.2
6480,33.9
6485,6.6
6491,22.9
6492,18.5
6494,2.6
6499,7.4
6500,11.9
6501,22.0
6502,21.9
6503,15.9
6505,21.2
6506,3.0
6508,15.4
6509,25.8
6510,16.1
6511,12.4
6512,26.7
6513,18.3
6514,20.0
6515,3.0
6517,2.5
6518,13.6
6523,16.1
6524,5.9
6525,3.0
6526,10.4
6527,17.8
6528,10.8
6529,27.2
6534,11.9
6535,20.0
6536,-4.7
6537,20.4
6538,7.4
6543,7.3
6547,-9.8
6549,8.2
6550,20.7
6552,5.4
6553,3.4
6555,6.9
6556,27.6
6557,9.8
6558,41.6
6560,24.1
6561,15.1
6563,15.2
6564,3.4
6565,22.0
6566,13.2
6569,8.2
6570,3.1
6574,20.7
6575,17.7
6577,14.6
6580,33.9
6581,27.2
6582,17.5
6583,3.1
6584,19.7
6585,5.1
6591,20.2
6592,18.5
6594,4.4
6596,23.8
6597,23.4
6598,18.4
6599,27.5
6601,24.5
6603,13.3
6604,4.1
6605,7.2
6608,24.3
6610,5.8
6615,0.5
6616,12.1
6618,4.6
6619,10.7
6622,9.2
6624,10.8
6625,0.5
6626,3.2
6627,6.2
6630,12.4
6631,6.8
6632,5.1
6633,17.4
6635,-2.1
6636,12.5
6637,9.7
6638,13.8
6639,19.8
6642,27.7
6643,5.8
6644,10.2
6646,-15.0
6649,17.6
6650,14.2
6656,2.2
6657,14.4
6658,9.1
6659,20.5
6660,39.1
6661,9.7
6662,20.9
6667,26.9
6669,3.5
6670,15.8
6671,15.9
6672,25.2
6673,22.1
6674,25.9
6675,25.3
6679,4.1
6682,18.5
6683,21.5
6689,9.5
6693,5.6
6694,21.4
6696,23.4
6699,16.9
6701,21.0
6704,5.6
6706,17.0
6707,13.0
6708,22.6
6709,22.9
6712,27.9
6713,5.4
6714,12.6
6715,-2.1
6716,8.5
6717,20.3
6719,17.0
6721,26.0
6722,11.4
6725,27.4
6726,-7.2
6727,5.6
6728,12.0
6729,21.2
6730,9.8
6731,5.4
6732,14.6
6735,16.4
6736,13.7
6737,41.6
6738,7.6
6740,12.1
6742,12.4
6744,10.6
6746,23.1
6747,12.2
6748,3.1
6749,-2.1
6751,12.3
6753,13.3
6757,2.2
6760,28.8
6762,3.1
6763,21.0
6770,25.1
6771,15.9
6773,4.3
6777,18.5
6780,8.9
6783,2.2
6784,10.8
6786,16.2
6791,5.1
6794,24.3
6795,-4.7
6797,17.3
6801,17.4
6803,27.7
6804,3.5
6805,21.3
6806,-12.4
6807,18.6
6812,5.7
6818,39.1
6819,5.5
6820,17.8
6821,10.8
6823,19.9
6824,22.0
6825,14.0
6830,15.9
6835,11.6
6836,14.2
6837,17.5
6840,8.0
6841,21.0
6844,4.9
6847,18.9
6849,6.9
6850,12.2
6851,3.3
6853,8.2
6855,20.6
6859,13.2
6861,5.5
6863,5.6
6864,27.1
6867,11.1
6868,23.2
6871,14.8
6872,9.7
6873,10.4
6874,0.5
6876,23.1
6878,27.5
6881,17.4
6883,5.6
6884,-2.1
6891,10.3
6893,21.4
6894,27.0
6895,28.8
6896,9.3
6897,9.4
6898,10.6
6903,15.4
6904,5.2
6906,-20.1
6914,2.4
6915,16.6
6917,20.7
6919,17.5
6920,31.3
6921,11.0
6924,11.1
6925,7.5
6926,25.0
6930,24.0
6931,15.9
6934,21.8
6935,12.4
6936,12.6
6940,24.5
6941,17.5
6942,10.8
6946,19.8
6949,5.9
6950,14.8
6951,14.9
6952,10.2
6953,-2.1
6956,12.6
6963,2.3
6965,-9.8
6966,27.2
6968,12.6
6969,23.1
6970,23.8
6972,10.0
6974,13.0
6976,39.1
6977,13.6
6978,9.7
6979,24.5
6980,6.0
6985,13.0
6987,26.0
6988,3.0
6989,2.4
6990,7.1
6991,22.8
6992,3.6
6993,15.1
6994,2.7
6996,11.7
6997,7.2
6998,2.1
6999,33.9
7004,13.5
7007,19.7
7008,18.5
7009,4.3
7010,18.5
7011,14.9
7012,4.4
7013,13.0
7016,11.0
7018,13.4
7020,3.6
7021,15.9
7022,5.4
7024,8.6
7025,4.0
7026,8.4
7028,10.5
7030,13.5
7031,8.9
7032,3.0
7034,20.5
7035,27.2
7036,21.0
7042,11.5
7043,3.0
7044,4.5
7046,23.1
7047,20.1
7048,27.7
7049,14.2
7050,3.4
7051,20.8
7053,5.2
7054,-4.7
7058,26.3
7064,4.1
7065,-9.8
7068,18.7
7070,15.6
7071,17.0
7075,12.3
7076,41.6
7081,27.1
7083,26.4
7085,24.0
7086,12.5
7088,5.6
7090,7.6
7091,10.6
7094,25.0
7096,16.4
7098,33.9
7101,7.1
7103,10.4
7108,17.8
7109,18.5
7111,8.9
7113,19.4
7114,14.0
7115,16.2
7117,2.2
7118,19.9
7120,3.3
7121,15.9
7125,6.8
7127,8.3
7129,21.4
7131,14.4
7133,0.5
7141,14.3
7143,3.0
7144,21.0
7145,16.1
7147,8.4
7148,2.2
7149,18.7
7150,16.7
7153,-4.7
7156,6.3
7159,17.7
7160,13.2
7164,-12.4
7165,8.3
7167,6.9
7169,23.3
7174,19.9
7176,17.7
7177,36.5
7178,14.5
7184,22.4
7185,5.5
7186,16.7
7189,21.0
7192,24.4
7194,9.5
7195,3.0
7200,18.5
7202,24.6
7206,26.0
7207,10.4
7208,21.8
7209,23.2
7211,26.3
7212,5.6
7213,25.3
7214,14.0
7215,18.1
7216,17.4
7218,6.9
7219,6.3
7221,14.3
7222,5.6
7224,8.2
7225,26.3
7226,6.1
7227,20.7
7228,24.6
7229,18.9
7230,3.2
7231,8.2
7232,0.5
7235,6.7
7241,17.0
7242,-2.1
7243,8.5
7244,27.8
7247,3.7
7248,18.0
7249,7.9
7251,22.8
7252,15.4
7253,9.6
7254,7.5
7255,31.3
7256,9.7
7257,19.2
7262,17.7
7263,15.7
7266,-22.7
7269,25.1
7270,2.2
7273,19.5
7278,28.8
7280,10.6
7281,10.3
7285,4.2
7286,23.9
7287,19.9
7289,18.5
7290,5.3
7296,12.1
7297,25.8
7298,13.5
7299,13.3
7300,19.9
7301,10.8
7303,18.2
7306,7.2
7307,26.9
7308,5.2
7309,2.1
7311,23.6
7313,-4.7
7316,22.5
7318,27.6
7322,7.5
7323,6.0
7324,-12.4
7326,22.1
7331,13.2
7334,18.3
7336,39.1
7339,22.3
7340,25.8
7341,14.8
7345,14.2
7346,7.7
7348,15.9
7350,26.4
7352,12.8
7353,20.9
7355,20.2
7359,21.0
7360,2.9
7363,12.4
7370,8.2
7372,26.1
7374,21.0
7375,2.7
7377,22.9
7378,2.1
7381,16.5
7382,5.6
7383,3.4
7384,11.8
7386,2.9
7388,18.0
7389,6.4
7392,3.0
7393,15.1
7394,9.9
7395,18.4
7396,4.2
7399,23.4
7401,18.6
7402,0.5
7403,22.6
7405,9.7
7407,3.4
7408,25.3
7410,9.0
7412,-4.7
7413,19.6
7416,24.6
7417,14.3
7418,21.7
7423,15.2
7424,-12.4
7425,13.1
7426,12.9
7427,11.7
7429,26.1
7431,23.9
7434,13.2
7435,6.2
7436,36.5
7438,23.9
7444,8.4
7445,12.5
7446,22.9
7448,18.5
7452,19.2
7459,18.5
7460,11.3
7461,24.0
7467,23.0
7470,12.5
7471,5.6
7472,26.8
7473,8.8
7474,12.7
7476,3.8
7478,16.9
7479,8.9
7481,5.6
7482,17.5
7488,18.8
7489,7.4
7491,-2.1
7492,15.6
7494,7.7
7495,17.3
7496,22.0
7497,19.7
7498,21.5
7499,23.8
7500,20.4
7502,-9.8
7503,23.9
7507,17.6
7509,4.0
7510,17.6
7513,20.4
7515,41.6
7525,13.1
7526,-2.1
7530,17.3
7531,18.1
7533,10.2
7537,31.3
7539,10.2
7541,24.5
7542,17.5
7543,22.8
7545,7.4
7546,23.4
7548,15.9
7550,22.2
7555,13.3
7560,8.2
7561,7.6
7564,5.4
7567,7.8
7568,17.4
7570,3.0
7575,25.2
7578,4.6
7581,3.0
7585,4.6
7587,20.7
7588,17.2
7590,26.3
7591,-4.7
7592,15.9
7596,18.9
7597,19.2
7603,-9.8
7605,25.7
7606,10.6
7609,9.5
7611,26.3
7613,7.9
7614,41.6
7620,2.4
7621,20.2
7622,6.7
7624,13.7
7625,3.0
7626,21.3
7627,27.7
7630,24.8
7634,5.6
7635,33.9
7637,7.0
7639,17.4
7642,15.8
7643,25.8
7647,26.4
7648,18.5
7652,9.8
7655,23.5
7656,26.2
7659,15.9
7660,6.2
7662,12.3
7663,14.0
7664,15.1
7665,14.8
7666,24.0
7669,22.1
7670,3.0
7671,15.7
7672,25.6
7673,5.3
7676,13.7
7677,18.7
7678,18.9
7680,3.5
7681,3.0
7683,19.1
7686,27.3
7688,9.5
7689,12.1
7690,3.3
7691,-4.7
7694,20.1
7696,27.7
7699,7.2
7700,20.8
7702,-12.4
7703,17.0
7706,11.6
7707,10.0
7710,21.4
7711,16.9
7715,36.5
7716,15.9
7717,24.6
7718,9.0
7719,2.6
7720,19.7
7721,15.4
7722,19.9
7724,18.2
7727,18.5
7728,16.8
7729,22.7
7730,7.0
7731,19.6
7734,8.3
7736,2.1
7737,18.1
7738,18.5
7741,25.9
7742,6.0
7743,12.3
7746,5.1
7747,23.8
7749,5.6
7752,3.5
7754,24.9
7756,12.8
7757,12.0
7758,5.4
7759,8.2
7764,4.6
7766,10.4
7767,25.4
7768,21.0
7770,-2.1
7773,19.8
7774,12.6
7775,9.2
7776,15.0
7777,26.1
7779,26.6
7780,10.4
7781,21.5
7782,-4.7
7783,11.3
7786,14.8
7788,4.6
7789,27.1
7791,8.6
7793,39.1
7794,13.2
7797,2.1
7798,3.4
7799,15.6
7803,10.8
7804,-7.2
7807,22.5
7811,12.8
7812,15.8
7815,5.5
7816,31.3
7817,19.8
7819,11.3
7820,12.8
7822,11.2
7824,10.5
7825,6.0
7826,25.2
7827,18.5
7829,24.4
7832,8.8
7836,22.0
7837,17.3
7838,10.8
7841,14.3
7842,9.7
7844,5.7
7846,24.0
7848,7.2
7850,15.8
7851,-2.1
7852,25.7
7855,28.0
7856,2.4
7859,22.2
7860,23.7
7861,23.3
7862,-9.8
7866,24.5
7868,21.0
7870,13.8
7871,26.9
7873,39.1
7875,12.6
7876,3.2
7877,18.2
7878,23.1
7879,9.0
7881,25.8
7882,15.3
7884,5.6
7885,12.7
7886,6.5
7887,22.7
7889,10.7
7890,3.3
7891,17.9
7892,15.9
7895,33.9
7897,2.8
7899,17.8
7906,18.5
7907,24.7
7909,21.4
7911,7.5
7913,19.4
7915,2.3
7918,15.9
7922,22.0
7925,18.6
7927,23.4
7929,3.0
7930,14.4
7933,14.6
7934,24.0
7935,23.4
7937,17.0
7938,14.7
7940,3.0
7944,23.9
7946,10.8
7948,6.0
7949,9.0
7950,-4.7
7952,7.5
7956,12.1
7957,9.0
7958,2.3
7960,10.3
7961,-9.8
7965,3.1
7966,7.3
7968,21.6
7972,41.6
7975,11.8
7980,20.0
7981,9.8
7982,15.2
7984,27.6
7985,8.2
7986,16.9
7988,15.0
7990,18.6
7992,7.8
7994,8.5
7995,33.9
7996,2.5
7997,10.8
7998,23.5
7999,21.8
8000,3.2
8001,19.1
8002,13.2
8004,6.4
8006,18.5
8007,18.0
8009,9.0
8012,18.9
8014,23.0
8016,3.2
8017,15.9
8018,8.1
8020,4.3
8025,25.7
8026,17.6
8029,3.0
8031,21.8
8033,10.6
8034,9.3
8035,23.9
8036,2.5
8037,7.0
8039,0.5
8041,10.1
8044,3.1
8045,4.5
8046,21.3
8050,-4.7
8055,19.3
8056,14.3
8058,15.8
8061,-12.4
8063,14.0
8069,17.9
8070,26.8
8071,5.0
8072,10.0
8073,15.4
8074,36.5
8076,13.1
8078,8.9
8079,25.6
8080,15.6
8085,18.5
8088,6.1
8093,2.1
8094,15.6
8095,20.8
8096,18.5
8098,23.8
8101,10.3
8102,18.7
8104,24.7
8105,20.1
8107,23.0
8108,5.6
8111,9.2
8114,16.8
8115,6.1
8116,18.8
8119,8.2
8121,7.7
8123,27.2
8125,13.2
8127,21.2
8128,11.4
8129,0.5
8130,16.3
8131,20.6
8132,21.7
8133,6.3
8134,12.9
8136,14.5
8138,26.1
8139,0.5
8140,7.5
8143,24.1
8145,13.5
8146,20.2
8147,12.0
8148,6.7
8150,8.2
8151,17.3
8155,19.1
8160,-7.2
8163,18.7
8164,19.7
8165,11.7
8166,27.5
8167,15.8
8171,39.1
8174,25.2
8175,21.9
8176,14.2
8177,15.0
8178,9.7
8179,5.8
8181,11.9
8182,11.4
8183,-7.2
8184,10.8
8188,10.1
8189,18.2
8191,17.4
8194,2.6
8195,31.3
8198,12.9
8199,6.0
8201,5.5
8206,15.9
8210,20.8
8211,7.7
8214,14.3
8217,10.8
8218,13.7
8219,15.1
8220,17.1
8221,27.5
8223,25.0
8224,7.9
8228,-2.1
8229,19.7
8234,16.9
8235,2.9
8236,23.1
8237,21.8
8239,13.1
8240,-9.8
8246,23.4
8250,24.7
8252,39.1
8253,20.6
8255,18.3
8256,13.6
8257,19.4
8258,16.4
8261,23.1
8262,27.6
8263,5.6
8267,17.1
8269,20.3
8271,3.8
8273,33.9
8274,22.6
8275,12.9
8278,10.2
8279,7.3
8284,15.6
8285,18.5
8287,27.7
8293,24.8
8295,16.2
8296,15.9
8300,18.2
8301,3.0
8305,13.8
8306,7.5
8307,3.0
8308,15.4
8309,11.2
8312,3.7
8314,14.8
8316,3.5
8318,3.0
8319,17.1
8320,11.6
8324,27.7
8325,21.8
8328,18.3
8329,-2.1
8331,6.4
8333,23.5
8335,7.5
8336,8.9
8340,-12.4
8341,15.3
8343,12.7
8344,15.7
8346,24.4
8347,26.9
8351,19.8
8352,39.1
8354,12.4
8355,5.9
8356,17.4
8357,19.7
8359,6.7
8361,26.3
8363,22.4
8364,18.5
8366,17.7
8368,18.4
8371,10.7
8373,4.3
8374,24.8
8375,21.0
8376,16.2
8379,6.0
8380,16.7
8383,22.5
8385,15.6
8387,8.2
8388,12.1
8390,19.0
8394,21.8
8395,15.3
8397,5.6
8398,5.5
8400,23.0
8401,18.9
8402,14.7
8403,25.8
8407,12.1
8408,0.5
8409,21.8
8412,27.1
8415,3.0
8418,3.0
8420,5.1
8423,13.8
8427,5.4
8428,0.5
8430,14.5
8431,5.8
8433,16.4
8434,12.1
8435,17.8
8436,8.0
8438,-4.7
8440,9.1
8451,39.1
8454,20.4
8456,19.2
8459,24.1
8460,19.2
8461,17.8
8462,-12.4
8463,13.8
8464,3.2
8466,20.6
8467,3.2
8468,14.8
8469,14.0
8472,18.0
8474,26.2
8475,24.4
8476,22.4
8479,24.5
8480,27.9
8485,13.3
8486,7.0
8487,11.2
8490,13.6
8491,22.8
8492,13.5
8493,21.2
8494,21.9
8496,23.8
8497,3.0
8498,19.1
8499,24.9
8500,4.6
8501,10.6
8502,18.4
8504,19.7
8505,22.0
8507,0.5
8508,13.4
8510,25.5
8514,11.3
8515,18.7
8516,15.6
8518,-2.1
8522,18.1
8523,19.6
8524,21.2
8525,15.4
8526,20.5
8527,9.3
8529,31.3
8533,3.2
8534,11.6
8536,15.2
8537,7.4
8538,27.3
8540,10.1
8541,-20.1
8543,10.0
8546,14.6
8547,3.3
8548,25.9
8550,4.7
8552,6.0
8553,28.8
8554,7.9
8555,18.9
8556,10.4
8557,3.3
8558,12.4
8561,27.8
8564,15.9
8566,5.0
8567,18.3
8568,12.2
8569,26.3
8576,10.8
8577,15.9
8579,3.9
8582,3.0
8584,18.6
8588,-2.1
8589,24.8
8590,13.7
8592,13.6
8594,3.4
8596,24.9
8598,8.0
8599,-12.4
8601,27.3
8607,22.9
8608,18.3
8611,39.1
8612,11.3
8613,15.3
8614,8.8
8618,27.4
8622,16.9
8623,15.9
8625,9.6
8628,25.8
8629,27.7
8631,23.3
8632,13.0
8633,24.3
8634,21.0
8637,26.8
8640,23.2
8641,3.7
8645,7.7
8646,5.6
8647,5.5
8648,10.3
8650,7.7
8651,15.0
8652,19.2
8653,24.6
8654,11.2
8656,8.2
8658,26.6
8660,11.5
8663,20.4
8664,6.2
8667,0.5
8668,25.7
8672,19.4
8674,19.2
8677,0.5
8678,8.1
8680,15.2
8681,27.0
8686,22.1
8687,-2.1
8688,7.4
8690,3.0
8693,16.7
8697,4.3
8698,-12.4
8701,16.5
8702,26.0
8704,19.2
8707,18.7
8708,27.9
8711,7.9
8712,39.1
8713,6.6
8717,4.4
8721,24.2
8723,18.5
8724,21.1
8725,3.8
8727,11.0
8729,21.2
8730,16.0
8731,17.2
8734,18.5
8735,22.7
8736,2.6
8741,14.1
8742,7.4
8743,9.6
8745,3.0
8746,12.0
8752,14.2
8755,8.6
8756,5.6
8757,6.6
8758,5.2
8759,21.3
8761,16.9
8765,16.2
8766,-2.1
8769,18.9
8776,26.0
8777,14.7
8778,-9.8
8783,21.3
8785,26.0
8787,17.9
8789,13.0
8790,41.6
8795,13.5
8796,10.8
8797,26.7
8799,25.3
8800,4.0
8801,0.5
8802,19.3
8805,12.5
8808,16.3
8809,18.8
8811,36.5
8812,26.5
8814,25.2
8815,4.6
8818,22.5
8819,9.8
8820,9.1
8821,14.5
8822,18.5
8825,20.2
8826,3.5
8828,17.4
8834,18.5
8836,23.2
8842,7.3
8844,14.7
8846,3.0
8848,13.7
8849,2.7
8852,27.9
8853,17.4
8856,3.0
8863,20.7
8864,5.3
8866,-2.1
8867,12.5
8868,19.3
8869,27.9
8873,27.2
8875,22.0
8877,2.7
8878,-7.2
8879,5.9
8882,27.0
8883,18.5
8884,27.2
8886,21.5
8887,17.0
8889,41.6
8892,18.8
8894,12.0
8899,23.3
8900,3.0
8901,5.0
8902,25.2
8904,12.8
8906,13.8
8909,5.2
8911,33.9
8913,21.4
8915,27.7
8917,12.8
8919,26.8
8920,2.0
8922,27.9
8923,18.5
8926,21.4
8927,25.8
8929,9.2
8931,23.1
8933,26.0
8934,18.5
8936,5.5
8940,24.1
8942,5.3
8943,19.7
8945,0.5
8947,27.5
8949,9.0
8951,17.3
8952,3.0
8953,25.4
8954,7.4
8955,0.5
8956,13.4
8960,13.0
8961,7.7
8964,12.9
8965,11.3
8966,-4.7
8967,21.2
8968,4.4
8973,24.5
8974,18.0
8976,10.5
8978,-12.4
8982,18.5
8983,9.2
8985,12.5
8987,9.1
8988,2.7
8989,6.3
8990,39.1
8991,8.4
8992,24.3
8994,3.6
8996,9.9
8997,12.3
9001,15.9
9002,11.4
9005,24.9
9006,5.6
9013,18.5
9016,23.0
9017,23.2
9018,4.9
9020,12.0
9023,14.7
9024,8.2
9027,5.3
9031,7.7
9034,5.6
9035,16.8
9038,22.3
9039,11.3
9046,0.5
9053,25.5
9054,11.9
9055,17.9
9056,3.0
9065,10.7
9066,0.5
9067,17.1
9069,6.1
9070,6.8
9074,19.8
9076,-4.7
9080,11.8
9081,24.9
9082,23.1
9085,9.8
9086,3.2
9088,36.5
9091,7.6
9094,24.3
9095,22.6
9099,-9.8
9100,23.2
9101,10.4
9103,27.3
9104,21.3
9106,10.7
9107,3.7
9108,20.8
9110,7.4
9111,33.9
9113,26.4
9115,27.2
9116,22.3
9117,26.1
9119,8.7
9120,16.3
9121,14.5
9122,18.5
9123,6.7
9128,25.7
9132,7.9
9133,2.0
9134,10.8
9137,14.2
9138,8.3
9139,8.1
9141,8.6
9142,11.4
9144,11.8
9145,0.5
9146,21.2
9149,4.2
9150,19.9
9151,9.6
9153,23.6
9155,-2.1
9156,5.9
9166,33.9
9167,4.4
9168,8.8
9172,22.3
9173,13.9
9174,15.4
9177,17.3
9178,10.2
9179,-20.1
9182,3.7
9183,24.7
9184,2.2
9185,2.4
9186,10.4
9188,8.3
9189,14.9
9190,13.3
9191,28.8
9197,4.5
9198,7.1
9199,20.2
9202,15.9
9204,22.9
9207,15.1
9213,10.8
9215,3.6
9216,20.8
9218,15.9
9219,27.1
9220,4.2
9221,7.4
9222,4.2
9223,4.4
9224,3.7
9225,-2.1
9226,7.9
9227,14.5
9234,12.7
9236,-12.4
9240,18.4
9244,26.6
9245,2.4
9247,22.8
9249,39.1
9254,4.0
9255,13.9
9257,3.2
9258,19.5
9261,18.5
9264,18.4
9265,10.3
9266,9.8
9268,10.6
9269,13.8
9272,21.0
9278,3.4
9279,18.7
9280,18.9
9281,2.1
9283,8.2
9284,24.5
9285,23.4
9287,19.1
9288,8.4
9289,23.0
9292,3.9
9293,5.6
9294,26.5
9295,6.7
9297,21.3
9298,2.3
9301,2.9
9304,0.5
9305,6.8
9309,3.4
9312,26.9
9313,13.2
9315,0.5
9316,10.7
9318,18.8
9319,26.5
9325,0.5
9326,25.7
9330,2.5
9331,10.5
9332,23.6
9333,6.4
9335,-4.7
9336,21.3
9337,4.5
9338,22.5
9339,2.7
9340,12.6
9345,3.0
9347,39.1
9352,10.2
9353,8.7
9354,21.2
9355,16.7
9357,2.5
9358,-9.8
9361,27.6
9365,12.4
9366,25.2
9367,7.4
9369,31.3
9370,21.2
9373,5.7
9374,5.5
9376,5.6
9378,3.0
9379,27.8
9380,8.0
9381,18.5
9383,27.4
9388,5.4
9389,19.3
9390,3.2
9393,13.3
9396,11.8
9398,19.0
9400,4.5
9401,19.2
9403,18.0
9404,0.5
9409,3.2
9411,4.0
9412,21.7
9413,8.7
9414,-2.1
9415,10.0
9417,7.8
9421,4.6
9422,7.9
9425,31.3
9426,6.5
9429,6.7
9431,11.8
9432,27.3
9433,22.7
9435,6.1
9436,21.1
9437,-22.7
9438,8.6
9439,23.6
9447,12.7
9449,9.4
9450,31.3
9451,5.3
9455,9.9
9456,15.0
9457,9.8
9459,22.9
9460,17.8
9461,15.9
9463,13.1
9466,2.1
9467,8.9
9469,15.3
9473,8.2
9474,13.2
9476,9.0
9482,21.4
9483,3.0
9485,21.0
9487,17.2
9491,11.3
9492,13.4
9493,3.0
9496,13.8
9497,19.4
9500,18.3
9501,24.5
9503,-2.1
9504,8.3
9506,19.2
9508,16.3
9509,18.3
9510,6.6
9511,14.3
9512,8.0
9514,12.5
9516,-9.8
9517,22.1
9518,10.7
9520,6.6
9527,41.6
9530,12.0
9531,27.0
9532,11.6
9533,10.6
9535,24.0
9538,5.6
9539,9.0
9540,21.9
9541,12.1
9543,6.1
9544,22.5
9545,24.7
9546,15.3
9548,36.5
9551,18.1
9554,12.8
9555,9.8
9557,8.9
9558,22.4
9560,18.5
9563,11.6
9565,8.5
9566,24.1
9568,20.1
9569,6.1
9570,24.8
9571,15.9
9576,22.2
9579,26.7
9582,26.0
9583,3.0
9585,12.2
9586,20.7
9587,19.3
9588,10.8
9589,16.6
9592,20.2
9593,0.5
9597,20.2
9598,12.6
9600,21.8
9604,-2.1
9605,24.9
9606,17.0
9610,25.1
9613,21.4
9614,6.0
9615,-12.4
9616,7.3
9617,25.7
9620,21.6
9624,12.1
9625,26.0
9626,5.9
9627,39.1
9628,4.7
9629,14.3
9631,6.1
9633,13.9
9634,18.8
9638,18.5
9639,26.3
9642,26.7
9647,21.4
9649,16.2
9651,21.0
9654,7.8
9656,9.1
9657,26.4
9658,9.5
9662,8.2
9663,16.3
9668,15.0
9671,13.2
9672,5.6
9676,19.4
9677,2.7
9680,22.4
9681,12.2
9682,0.5
9683,16.0
9684,9.7
9686,14.2
9690,18.6
9691,18.0
9693,3.0
9696,21.6
9697,21.7
9698,22.5
9699,4.0
9701,4.5
9703,3.0
9706,24.4
9708,19.5
9713,15.0
9714,-4.7
9715,4.6
9718,25.3
9720,15.4
9721,7.1
9723,14.0
9724,2.8
9725,39.1
9728,2.6
9730,23.0
9731,14.3
9737,-9.8
9740,11.9
9742,14.3
9748,31.3
9750,6.3
9751,23.6
9752,2.1
9756,4.5
9758,15.9
9759,18.5
9765,13.0
9768,14.5
9769,16.4
9771,13.3
9776,20.5
9777,16.5
9780,5.6
9781,21.0
9782,16.9
9783,-2.1
9784,5.1
9785,27.5
9786,27.5
9787,12.4
9788,7.1
9789,22.0
9790,22.4
9792,13.5
9794,-9.8
9798,6.8
9799,18.7
9800,23.8
9805,41.6
9806,21.5
9807,27.8
9812,18.5
9814,12.1
9815,20.3
9816,11.0
9817,3.0
9818,12.5
9819,25.8
9820,7.0
9821,4.8
9824,5.6
9827,36.5
9828,26.2
9833,24.4
9835,17.3
9836,25.4
9837,2.3
9838,21.0
9839,12.3
9841,16.9
9842,15.1
9843,19.3
9844,27.8
9850,15.9
9851,4.9
9853,18.7
9861,20.3
9862,3.0
9865,12.0
9867,9.6
9868,14.0
9869,18.1
9870,13.7
9872,3.0
9873,19.5
9875,12.7
9876,25.1
9878,7.8
9880,10.5
9882,-2.1
9883,17.6
9887,2.9
9888,26.9
9890,4.8
9892,11.1
9893,-9.8
9894,22.1
9895,2.7
9896,12.4
9897,20.7
9898,16.8
9899,9.1
9900,17.2
9902,21.8
9904,4.1
9905,39.1
9909,7.9
9911,9.1
9912,9.1
9913,14.4
9915,19.3
9916,23.7
9917,5.6
9918,19.1
9919,7.3
9921,19.8
9924,15.9
9926,4.6
9927,33.9
9928,3.2
9930,16.6
9933,22.7
9934,8.9
9935,20.9
9938,18.5
9941,26.8
9942,24.5
9943,14.8
9946,7.6
9947,3.9
9949,8.5
9950,13.3
9954,16.2
9955,4.7
9956,2.3
9958,9.4
9960,19.0
9961,0.5
9963,17.3
9966,19.1
9967,22.1
9968,3.2
9970,10.1
9971,0.5
9974,25.4
9977,6.2
9978,25.7
9979,5.9
9980,16.6
9982,-2.1
9986,24.9
9987,24.2
9988,26.1
9990,12.5
9991,16.2
9993,2.9
9994,-12.4
9995,27.1
10001,24.8
10003,17.7
10006,39.1
10007,8.4
10011,5.8
10012,26.8
10013,22.0
10016,8.7
10018,18.5
10019,25.3
10020,26.3
10022,9.9
10023,8.8
10027,6.1
10031,5.6
10032,3.6
10035,10.3
10036,3.9
10038,3.6
10041,14.4
10042,27.6
10043,15.9
10044,4.5
10046,23.8
10047,26.1
10048,4.6
10049,25.9
10052,11.9
10055,-22.7
10059,4.1
10060,22.5
10061,4.6
10062,20.2
10066,4.2
10067,14.9
10068,21.0
10069,7.3
10071,5.5
10073,20.3
10074,17.2
10077,10.0
10078,24.0
10079,2.4
10080,5.5
10081,0.5
10082,25.6
10083,19.4
10084,2.1
10087,27.2
10088,15.5
10089,22.9
10090,4.3
10091,4.4
10092,-4.7
10094,5.4
10095,15.9
10096,24.1
10101,9.8
10102,5.6
10104,41.6
10105,14.6
10106,20.1
10109,22.1
10111,17.8
10112,27.2
10114,14.4
10117,15.3
10118,18.5
10119,14.8
10120,9.7
10123,13.1
10124,17.7
10125,8.2
10126,22.5
10130,13.3
10133,4.1
10135,25.9
10137,15.0
10139,18.0
10142,21.0
10143,4.9
10144,27.6
10146,5.2
10147,17.0
10150,9.4
10152,8.5
10153,5.9
10154,11.1
10155,-20.1
10156,24.8
10157,4.0
10158,8.2
10164,25.9
10168,21.0
10181,-2.1
10182,7.7
10183,3.3
10184,17.5
10185,13.3
10188,19.2
10189,12.1
10190,12.6
10191,8.6
10192,11.0
10193,-15.0
10194,6.3
10195,10.4
10197,21.7
10198,14.9
10200,10.1
10201,4.0
10202,5.6
10204,11.4
10206,14.7
10207,31.3
10210,23.0
10211,26.3
10212,14.1
10213,16.1
10215,20.3
10216,9.2
10217,15.7
10219,8.2
10220,25.7
10221,13.1
10224,17.7
10226,15.2
10227,27.5
10230,0.5
10232,17.5
10233,27.5
10239,2.8
10241,4.8
10242,27.8
10243,26.2
10246,20.2
10247,10.9
10248,13.7
10250,26.4
10252,25.8
10255,-9.8
10258,7.4
10259,11.5
10260,15.1
10261,25.0
10262,24.1
10264,6.8
10267,26.2
10268,18.6
10269,4.2
10274,6.1
10278,12.5
10279,5.6
10280,21.8
10281,11.4
10282,11.5
10284,8.7
10285,24.7
10286,14.4
10289,19.2
10290,4.2
10291,-2.1
10292,24.3
10297,19.0
10298,9.1
10299,23.8
10301,2.1
10302,23.3
10303,41.6
10304,15.2
10309,26.8
10312,12.9
10313,6.7
10315,3.1
10316,18.5
10319,20.2
10321,13.6
10322,23.0
10323,24.8
10324,2.1
10325,18.6
10327,23.1
10329,15.9
10331,12.6
10333,17.6
10336,19.5
10340,27.7
10341,5.6
10342,22.9
10344,4.6
10345,5.5
10348,5.7
10351,14.3
10352,-15.0
10353,6.4
10354,15.0
10355,4.9
10358,11.1
10362,22.6
10363,6.2
10365,28.8
10368,8.0
10369,16.4
10371,6.7
10375,16.5
10377,9.4
10379,10.8
10381,15.9
10383,14.2
10384,24.5
10388,15.7
10389,11.3
10391,-4.7
10392,17.8
10395,17.5
10397,2.8
10398,9.1
10402,3.0
10403,41.6
10404,21.5
10406,9.0
10407,17.7
10409,5.0
10413,11.7
10414,22.3
10416,18.5
10421,20.3
10422,26.3
10423,11.0
10424,2.8
10425,24.2
10427,22.1
10428,13.3
10429,7.1
10437,27.1
10438,26.5
10440,13.3
10443,26.1
10445,6.3
10446,18.7
10448,17.4
10449,26.0
10452,2.2
10453,26.2
10454,-20.1
10455,9.5
10460,18.6
10462,26.3
10465,11.3
10467,21.0
10473,14.7
10476,27.5
10478,17.6
10479,3.0
10482,14.1
10486,8.2
10487,5.3
10489,16.1
10490,-4.7
10491,24.1
10492,2.6
10494,9.8
10495,18.2
10497,25.7
10499,20.5
10500,10.6
10503,41.6
10504,9.8
10507,17.9
10508,24.7
10510,5.3
10511,21.8
10514,21.8
10515,4.5
10516,18.5
10517,19.1
10520,9.5
10522,16.4
10524,22.8
10526,9.5
10527,25.0
10528,10.8
10529,5.4
10530,2.9
10531,4.2
10535,15.3
10538,16.4
10541,15.9
10544,17.9
10545,2.6
10547,7.8
10551,11.0
10552,27.5
10553,-25.3
10555,16.5
10556,20.5
10558,2.6
10559,27.9
10560,14.1
10562,17.2
10563,5.0
10564,5.8
10566,21.0
10567,7.8
10572,19.2
10574,20.9
10579,-2.1
10582,20.7
10584,8.5
10585,25.9
10587,8.2
10590,20.7
10592,-15.0
10598,17.5
10601,2.4
10603,23.2
10605,31.3
10607,16.4
10609,26.9
10611,25.8
10612,22.4
10616,17.4
10617,8.2
10618,10.0
10619,22.0
10620,16.2
10621,9.2
10622,17.0
10624,21.2
10626,23.7
10628,17.7
10629,0.5
10632,13.2
10633,18.6
10635,19.9
10636,11.3
10637,6.0
10640,26.2
10641,17.8
10642,16.1
10643,2.4
10645,3.7
10646,3.3
10647,10.6
10649,14.0
10650,8.1
10653,-12.4
10655,21.7
10656,11.7
10659,25.2
10660,4.2
10661,10.3
10663,13.5
10664,4.4
10665,7.8
10666,19.3
10667,18.5
10670,3.8
10672,17.3
10673,16.3
10675,5.6
10677,7.7
10679,-2.1
10682,2.5
10683,9.3
10685,14.5
10686,12.4
10687,18.0
10688,18.6
10689,24.1
10691,-15.0
10692,9.7
10695,9.8
10703,22.1
10704,31.3
10706,15.0
10707,25.6
10708,10.4
10709,24.8
10710,2.2
10714,9.3
10718,8.2
10724,6.8
10725,21.3
10727,25.4
10728,6.5
10729,0.5
10730,9.8
10731,2.1
10732,2.8
10733,4.1
10734,20.4
10736,10.0
10738,20.7
10740,28.8
10742,10.9
10745,26.5
10747,12.4
10748,4.8
10749,15.9
10750,10.2
10751,9.3
10752,26.9
10753,-4.7
10754,26.1
10755,12.0
10756,23.7
10757,16.6
10758,11.8
10762,6.2
10765,26.2
10769,6.3
10771,13.8
10773,8.2
10774,21.8
10775,7.8
10778,3.0
10780,5.8
10783,22.7
10785,19.6
10789,-2.1
10790,9.6
10795,6.7
10798,7.8
10799,4.1
10800,18.6
10801,26.0
10802,41.6
10803,5.6
10809,12.1
10810,3.2
10811,2.5
10812,23.5
10814,18.5
10815,17.7
10819,12.2
10821,25.5
10822,19.9
10823,17.6
10826,13.3
10830,13.5
10831,4.6
10832,9.7
10833,6.1
10835,5.6
10837,5.4
10839,8.2
10840,9.9
10841,12.6
10842,16.1
10846,22.0
10847,25.5
10848,11.3
10849,8.3
10850,6.6
10851,-15.0
10854,12.6
10855,17.7
10859,14.3
10861,27.8
10864,28.8
10865,2.1
10867,7.8
10869,5.3
10872,11.2
10873,2.9
10874,7.6
10876,10.8
10879,23.8
10880,17.2
10881,15.0
10884,9.9
10886,22.3
10887,23.4
10889,-4.7
10890,2.2
10896,5.9
10901,41.6
10902,12.9
10904,19.5
10905,3.3
10906,17.0
10908,18.7
10914,18.5
10916,7.5
10918,18.1
10920,14.7
10923,14.7
10924,17.7
10926,2.1
10927,10.8
10928,18.8
10929,6.8
10932,17.1
10933,10.9
10937,4.6
10939,18.5
10941,5.8
10945,23.9
10949,11.8
10951,-25.3
10952,20.7
10956,9.3
10959,14.8
10962,15.4
10964,21.0
10967,11.6
10973,27.2
10974,10.0
10975,20.9
10976,17.1
10977,18.2
10978,3.0
10979,25.4
10980,7.9
10983,9.4
10989,-7.2
10992,22.3
10993,20.9
10994,27.4
10996,5.6
10997,8.1
10998,27.0
10999,18.9
11000,14.2
11001,41.6
11002,25.8
11005,15.9
11006,4.0
11007,10.6
11008,9.5
11010,21.1
11014,18.5
11016,23.8
11019,13.5
11021,22.3
11022,5.1
11023,9.7
11025,21.7
11026,10.8
11027,7.1
11029,18.0
11030,25.7
11032,25.9
11033,19.4
11037,27.3
11038,23.6
11041,13.1
11043,12.9
11046,13.1
11050,3.5
11052,-17.5
11054,6.6
11055,14.2
11061,25.3
11065,21.0
11068,12.9
11069,5.3
11070,22.4
11071,6.2
11072,4.3
11073,20.2
11074,10.3
11077,-2.1
11081,16.2
11084,12.6
11085,3.9
11088,20.8
11089,-17.5
11091,3.6
11093,5.4
11094,3.8
11096,5.0
11100,14.4
11101,16.2
11102,26.1
11103,28.8
11105,2.6
11107,18.4
11109,14.4
11110,13.1
11111,10.7
11116,8.2
11117,5.5
11118,7.2
11122,14.6
11124,16.0
11127,0.5
11128,17.2
11130,3.9
11131,5.6
11133,23.3
11137,15.4
11138,9.4
11139,28.8
11142,15.3
11143,12.8
11145,25.7
11146,4.2
11147,9.4
11148,6.0
11151,-9.8
11152,10.1
11158,2.6
11161,2.8
11162,21.4
11163,26.2
11164,13.8
11165,10.8
11167,25.6
11171,16.8
11175,16.0
11176,5.6
11178,25.6
11180,5.9
11182,8.3
11188,-2.1
11189,20.1
11190,7.4
11191,8.8
11194,11.0
11196,19.1
11197,15.1
11200,41.6
11201,11.9
11203,17.9
11204,5.3
11205,14.4
11207,27.1
11208,20.6
11212,18.5
11213,4.7
11214,19.1
11215,7.2
11216,19.8
11222,12.7
11223,16.8
11224,24.9
11225,13.3
11226,10.9
11227,7.5
11228,15.6
11229,3.1
11233,4.6
11237,5.6
11238,9.1
11241,24.6
11245,23.2
11249,-15.0
11251,22.9
11255,6.3
11256,13.1
11261,9.6
11262,28.8
11266,13.2
11267,24.5
11271,24.8
11272,24.7
11274,11.6
11275,10.8
11277,22.9
11281,14.7
11284,27.8
11285,10.2
11287,-4.7
11290,11.0
11291,27.0
11293,25.6
11297,14.7
11298,23.7
11299,44.2
11300,19.5
11301,10.2
11302,21.5
11303,18.0
11304,27.4
11305,8.8
11307,13.5
11308,9.6
11311,13.1
11312,6.3
11313,18.5
11314,23.2
11319,17.0
11324,20.4
11325,13.3
11327,23.6
11330,2.6
11331,12.6
11332,5.6
11333,2.2
11334,12.7
11335,5.4
11336,16.8
11337,15.9
11339,10.5
11340,15.9
11341,10.7
11343,4.9
11347,23.3
11348,3.4
11349,13.0
11350,-20.1
11353,5.3
11354,13.6
11358,12.9
11363,23.6
11364,14.8
11366,17.5
11369,8.0
11371,10.3
11374,2.6
11376,3.0
11379,13.5
11381,22.2
11383,8.7
11387,-7.2
11388,24.8
11389,24.5
11391,3.9
11392,17.0
11395,9.8
11396,24.6
11397,19.1
11398,25.4
11399,6.8
11400,41.6
11402,22.5
11403,9.6
11404,14.8
11407,16.3
11412,15.9
11418,24.3
11419,26.3
11424,10.8
11429,20.2
11430,21.0
11431,2.2
11433,25.7
11437,21.0
11438,27.3
11442,20.8
11445,14.1
11448,24.8
11450,-20.1
11451,11.7
11452,24.5
11455,9.6
11458,19.0
11459,13.9
11460,7.3
11461,18.9
11462,15.8
11463,21.0
11466,4.4
11467,13.8
11469,19.7
11470,26.6
11471,27.6
11472,5.7
11473,8.3
11475,0.5
11476,13.6
11478,21.0
11479,6.1
11480,3.5
11482,16.8
11487,-7.2
11492,20.3
11494,10.2
11497,20.7
11498,12.3
11499,41.6
11502,12.4
11505,21.0
11506,2.3
11508,7.1
11510,18.4
11511,19.4
11512,18.5
11517,24.1
11518,22.4
11520,23.0
11525,10.8
11528,13.1
11529,2.1
11534,3.8
11535,5.6
11536,22.6
11537,26.2
11538,5.9
11539,23.4
11541,23.9
11543,25.2
11545,20.7
11546,15.5
11548,15.1
11549,-12.4
11551,9.0
11555,12.1
11557,8.6
11558,27.1
11560,16.1
11563,18.5
11567,7.3
11569,21.6
11571,13.0
11574,13.7
11576,-2.1
11577,17.0
11581,2.6
11583,22.5
11584,6.3
11585,27.4
11586,16.0
11587,12.5
11588,-17.5
11593,20.8
11596,18.6
11597,20.1
11598,11.9
11601,26.2
11604,24.1
11605,18.6
11607,8.6
11608,25.9
11610,25.2
11613,24.8
11614,8.2
11616,17.6
11617,2.6
11618,27.6
11619,25.8
11620,9.3
11623,20.6
11625,0.5
11629,3.4
11630,24.5
11631,5.8
11635,18.2
11636,28.8
11646,21.9
11648,4.4
11650,-4.7
11651,16.7
11652,7.6
11653,3.3
11657,19.0
11658,25.1
11659,2.0
11660,4.8
11662,26.2
11663,10.6
11665,12.2
11667,14.4
11669,22.5
11672,15.8
11674,3.0
11679,20.0
11681,20.4
11683,3.6
11685,-4.7
11687,24.8
11688,7.6
11691,15.6
11693,15.2
11696,18.6
11698,41.6
11700,20.9
11703,2.9
11704,8.6
11707,3.8
11709,9.3
11711,15.9
11712,9.1
11713,3.7
11714,12.5
11715,25.2
11717,10.8
11718,19.9
11721,23.7
11723,13.3
11724,7.0
11725,18.5
11726,4.7
11727,15.4
11728,7.6
11729,10.1
11732,10.3
11734,15.1
11736,10.8
11741,7.1
11742,18.2
11748,-22.7
11750,2.3
11751,26.0
11752,15.4
11753,10.3
11754,9.3
11755,4.9
11756,23.9
11757,13.7
11759,8.8
11760,4.4
11761,23.6
11762,26.1
11769,3.0
11770,25.1
11771,22.5
11774,0.5
11777,19.1
11778,12.5
11781,17.8
11786,-7.2
11787,20.0
11788,18.8
11789,7.3
11791,20.2
11796,13.3
11798,41.6
11803,4.8
11805,15.4
11806,12.1
11810,18.5
11811,27.5
11812,15.5
11814,13.0
11815,4.2
11816,16.9
11817,23.5
11820,12.0
11822,11.3
11823,13.3
11824,21.1
11825,15.6
11827,19.3
11829,6.2
11830,3.7
11832,24.6
11833,20.7
11834,24.5
11835,15.9
11838,10.7
11841,27.5
11842,7.4
11847,6.9
11848,-25.3
11849,11.3
11850,16.0
11853,17.3
11855,13.0
11858,13.4
11861,5.9
11862,21.0
11863,11.6
11866,11.5
11867,8.2
11869,8.4
11872,19.1
11873,22.0
11874,0.5
11875,15.2
11878,9.3
11879,12.1
11881,19.1
11882,4.5
11883,25.5
11884,20.2
11885,-4.7
11889,10.7
11890,3.1
11893,19.7
11895,16.0
11896,9.0
11897,41.6
11899,13.1
11900,16.2
11902,17.7
11903,7.4
11904,23.2
11911,21.0
11912,22.2
11913,2.2
11916,22.5
11917,10.9
11918,6.1
11920,23.5
11921,6.6
11923,10.8
11933,21.6
11934,13.2
11935,23.6
11936,16.6
11940,18.8
11942,8.6
11943,3.8
11944,11.6
11947,21.2
11948,-15.0
11953,3.6
11954,10.3
11955,24.7
11957,11.6
11959,9.8
11961,18.5
11968,4.8
11970,8.2
11971,22.9
11973,14.1
11974,-2.1
11979,7.0
11980,25.8
11984,15.9
11985,16.7
11986,-17.5
11991,14.3
11992,25.0
11993,23.9
11998,18.6
11999,21.9
12000,28.8
12001,7.8
12002,24.5
12004,24.0
12007,26.7
12008,22.6
12009,14.2
12010,25.9
12012,8.2
12013,26.7
12015,5.0
12017,24.8
12018,15.0
12019,5.6
12020,5.3
12023,0.5
12024,21.0
12027,19.0
12029,26.0
12032,7.2
12034,22.3
12035,28.8
12036,3.6
12038,13.5
12039,4.2
12040,3.9
12043,23.5
12044,20.6
12045,9.2
12047,7.0
12048,-7.2
12049,19.6
12051,14.7
12053,25.1
12054,27.1
12058,11.1
12059,19.1
12060,23.6
12061,24.1
12066,20.0
12067,13.6
12068,14.2
12069,21.7
12070,23.7
12071,22.4
12072,3.0
12073,25.5
12074,26.3
12080,19.6
12082,17.1
12083,14.3
12084,-4.7
12088,11.8
12092,20.5
12095,13.3
12096,41.6
12097,22.1
12098,12.5
12100,13.8
12102,9.7
12103,17.8
12104,20.8
12105,11.8
12109,18.5
12110,24.2
12112,7.1
12113,22.3
12115,2.4
12116,18.0
12117,11.5
12120,6.2
12122,13.3
12125,23.4
12126,9.3
12127,5.6
12131,19.5
12133,19.7
12134,5.6
12138,11.5
12140,22.3
12142,18.2
12143,26.9
12145,-12.4
12146,6.7
12149,23.8
12156,17.1
12158,31.3
12159,21.8
12162,8.3
12164,18.2
12165,2.3
12168,2.6
12171,13.3
12172,20.0
12174,14.4
12175,8.3
12178,3.3
12182,5.0
12183,14.8
12184,-4.7
12186,18.7
12189,5.0
12194,25.6
12195,10.5
12196,41.6
12200,21.4
12201,4.5
12208,3.8
12209,18.5
12211,20.4
12213,25.6
12215,12.9
12218,2.8
12219,2.9
12221,13.3
12222,12.4
12225,16.6
12226,20.7
12230,19.4
12231,24.0
12233,13.3
12239,25.7
12240,17.5
12244,24.5
12247,-20.1
12248,25.9
12253,7.3
12254,10.3
12255,15.2
12259,20.6
12260,21.0
12261,11.3
12262,25.3
12264,17.6
12265,4.8
12267,16.8
12270,14.3
12271,4.4
12272,0.5
12273,8.6
12274,8.3
12276,25.3
12280,15.1
12282,12.7
12283,-7.2
12285,18.5
12286,24.2
12288,19.6
12290,8.2
12291,6.0
12293,24.8
12294,4.4
12296,41.6
12298,27.9
12304,14.9
12309,18.5
12310,5.6
12312,19.1
12316,13.0
12319,5.8
12320,15.5
12321,10.8
12322,10.1
12327,16.0
12328,8.9
12329,25.1
12332,25.4
12334,21.0
12335,27.7
12340,14.9
12345,5.3
12346,-20.1
12347,2.1
12351,23.1
12354,19.9
12356,21.1
12357,19.1
12358,2.5
12359,21.0
12361,12.2
12362,3.3
12363,9.9
12364,21.4
12366,22.5
12372,0.5
12373,10.3
12377,17.3
12378,16.5
12382,10.8
12383,7.4
12384,-7.2
12388,5.7
12389,24.8
12391,12.4
12392,18.9
12396,39.1
12398,21.0
12401,24.9
12402,20.1
12403,7.2
12407,8.1
12408,18.5
12409,25.4
12411,24.0
12412,25.6
12413,11.9
12414,20.5
12415,23.6
12420,7.2
12421,8.2
12428,2.3
12429,25.6
12431,3.5
12432,-2.1
12436,3.0
12437,3.4
12438,23.3
12440,17.3
12442,3.7
12445,-20.1
12449,13.5
12451,5.0
12457,2.1
12458,26.5
12459,26.2
12462,24.2
12464,15.8
12465,3.2
12466,15.7
12468,27.5
12470,8.0
12471,5.6
12474,20.2
12477,9.2
12479,10.7
12480,24.9
12481,17.6
12482,-2.1
12483,6.7
12484,19.8
12486,18.2
12489,8.0
12491,26.0
12493,20.4
12494,39.1
12496,18.5
12498,12.8
12500,4.3
12501,22.0
12503,12.2
12505,15.9
12506,18.7
12508,18.5
12510,15.3
12513,23.1
12514,5.6
12516,5.6
12518,18.5
12520,15.9
12521,15.5
12523,11.1
12526,27.6
12530,21.8
12531,9.9
12532,5.6
12534,13.9
12536,20.1
12539,8.7
12540,13.9
12541,2.1
12544,-15.0
12548,11.0
12551,20.7
12554,3.9
12555,23.5
12557,31.3
12558,27.9
12560,2.9
12562,11.1
12563,16.3
12564,7.5
12566,22.3
12567,8.4
12569,10.8
12573,24.4
12574,13.2
12575,26.2
12579,17.7
12580,18.1
12582,-4.7
12584,9.5
12586,5.6
12588,16.5
12589,27.7
12590,21.4
12592,5.6
12593,13.0
12594,8.1
12595,41.6
12596,28.0
12597,21.1
12598,11.3
12601,2.7
12602,20.9
12603,12.5
12604,14.6
12606,14.5
12607,18.5
12611,24.5
12612,15.2
12613,14.4
12615,24.6
12619,13.3
12623,5.3
12624,15.8
12625,23.1
12626,7.6
12627,26.1
12632,13.3
12633,13.2
12634,15.7
12637,19.3
12639,11.3
12642,4.3
12643,19.0
12645,-22.7
12646,24.9
12648,22.3
12650,6.2
12652,26.0
12654,6.5
12657,6.1
12658,21.0
12664,13.1
12665,13.3
12666,15.4
12667,20.0
12668,2.3
12670,0.5
12671,20.2
12673,7.1
12677,18.7
12679,4.2
12681,12.3
12682,-4.7
12687,23.2
12689,6.4
12694,41.6
12695,16.3
12697,18.7
12702,19.6
12703,20.6
12704,27.2
12707,18.5
12710,2.0
12711,9.6
12717,17.2
12719,23.0
12720,13.3
12721,16.7
12723,4.8
12725,10.4
12726,18.2
12731,14.5
12732,21.0
12733,6.0
12734,10.4
12735,17.7
12737,14.9
12738,9.7
12739,16.3
12740,6.9
12743,16.5
12744,-22.7
12745,26.9
12746,15.8
12747,10.2
12753,26.0
12755,25.9
12758,21.0
12759,26.5
12760,9.6
12761,22.1
12762,4.8
12763,26.6
12764,12.1
12765,14.6
12766,17.2
12770,16.9
12771,0.5
12772,26.8
12774,5.6
12775,26.9
12780,24.4
12781,24.6
12782,-7.2
12785,11.1
12788,4.4
12792,15.9
12793,4.1
12794,41.6
12795,5.0
12796,27.4
12797,15.7
12800,3.0
12801,24.7
12802,11.4
12805,3.1
12806,20.7
12807,18.5
12809,6.8
12810,9.0
12811,20.3
12812,6.7
12818,26.6
12819,10.8
12822,16.6
12823,25.1
12824,11.1
12830,14.0
12831,26.2
12833,3.3
12834,8.1
12835,2.4
12836,5.7
12839,7.1
12840,5.2
12841,21.0
12845,-15.0
12846,5.9
12847,18.5
12848,3.7
12849,15.2
12852,23.7
12853,2.9
12856,9.2
12857,16.9
12858,21.0
12859,27.2
12861,12.4
12863,18.7
12865,11.0
12866,27.9
12867,6.2
12869,24.1
12870,-2.1
12871,12.6
12872,7.5
12873,5.1
12874,16.6
12875,12.0
12876,25.0
12879,2.4
12882,-15.0
12883,26.8
12886,18.6
12888,2.5
12891,5.5
12893,8.8
12896,28.8
12897,6.5
12898,12.0
12899,20.5
12900,5.6
12902,20.2
12903,16.9
12908,11.5
12909,8.2
12912,14.2
12913,22.6
12914,18.5
12917,27.8
12920,0.5
12925,20.1
12927,10.5
12928,25.0
12929,19.9
12930,23.0
12931,21.8
12932,28.8
12935,9.9
12936,26.6
12937,27.0
12938,11.6
12939,12.6
12940,22.2
12942,14.9
12943,3.3
12944,-4.7
12946,11.9
12948,25.5
12956,23.6
12961,22.5
12962,11.4
12963,9.9
12966,26.4
12968,5.6
12969,7.7
12970,10.6
12971,3.7
12972,11.9
12973,13.2
12975,16.3
12976,15.9
12979,23.4
12980,11.2
12981,-2.1
12984,24.7
12985,7.2
12986,21.4
12987,9.0
12988,7.2
12990,9.7
12991,21.3
12993,41.6
12994,7.9
12996,26.4
12998,11.2
13001,16.2
13003,13.2
13004,6.2
13005,18.5
13009,12.8
13016,14.9
13017,13.3
13018,13.3
13022,12.2
13024,9.8
13028,10.1
13030,10.8
13032,6.0
13034,24.4
13040,23.1
13041,14.3
13043,-20.1
13044,15.6
13048,2.1
13050,15.2
13051,17.8
13056,8.3
13057,23.6
13058,22.1
13059,18.9
13061,22.1
13063,17.9
13066,7.7
13068,23.6
13069,3.0
13071,8.5
13072,8.3
13074,27.4
13075,13.2
13077,17.5
13078,10.8
13080,-4.7
13084,15.9
13085,11.3
13091,21.8
13092,41.6
13097,22.6
13098,10.3
13099,3.5
13101,27.9
13103,2.8
13105,6.5
13106,18.5
13110,9.0
13113,14.1
13114,21.1
13115,2.2
13116,13.9
13118,10.8
13122,9.3
13125,25.9
13128,21.7
13129,21.7
13130,15.9
13131,16.7
13133,20.1
13134,13.6
13135,25.8
13138,14.7
13140,5.7
13141,27.3
13143,-22.7
13145,10.2
13148,18.5
13151,26.0
13153,19.3
13156,21.0
13157,27.2
13159,2.1
13161,16.6
13162,2.7
13163,13.0
13164,10.7
13167,27.8
13168,0.5
13170,4.9
13175,3.0
13179,5.4
13180,-4.7
13183,20.1
13184,2.1
13186,27.8
13189,2.6
13192,6.8
13193,39.1
13196,16.6
13205,18.5
13207,10.1
13210,10.9
13217,10.8
13220,25.0
13221,5.6
13222,14.1
13224,8.9
13226,19.8
13227,19.5
13228,8.0
13230,21.0
13232,7.8
13233,14.8
13234,24.3
13238,21.7
13239,6.9
13241,22.7
13243,-17.5
13246,20.8
13247,4.6
13249,5.7
13251,19.1
13254,17.0
13256,21.0
13259,9.1
13260,24.6
13261,12.4
13262,6.8
13264,14.0
13268,0.5
13269,8.9
13271,16.3
13273,23.9
13275,11.9
13279,6.8
13280,-7.2
13282,19.4
13283,4.9
13284,3.3
13286,11.5
13287,7.8
13288,7.0
13291,20.6
13292,41.6
13293,11.1
13295,9.6
13296,26.8
13297,8.7
13298,21.7
13301,27.4
13305,18.5
13306,22.8
13307,23.4
13308,18.3
13309,17.2
13310,10.4
13318,8.2
13319,4.0
13322,19.3
13325,26.0
13329,-2.1
13334,10.9
13335,11.3
13336,21.7
13338,7.7
13340,13.8
13341,-20.1
13343,2.8
13345,21.9
13347,5.5
13349,6.8
13350,24.0
13352,12.8
13353,7.2
13355,26.2
13357,13.5
13359,12.0
13365,27.9
13366,5.7
13367,5.6
13372,4.3
13373,10.3
13374,14.4
13375,27.0
13379,-4.7
13382,20.7
13383,21.8
13385,21.4
13388,21.8
13391,41.6
13394,8.7
13397,4.6
13399,21.6
13401,2.7
13404,18.5
13405,8.7
13410,5.1
13411,27.4
13412,19.0
13413,12.2
13414,2.4
13415,18.2
13416,13.3
13418,3.5
13421,16.8
13424,4.2
13425,23.6
13426,8.3
13427,22.5
13428,5.6
13429,8.1
13430,18.1
13433,10.7
13435,3.9
13436,21.4
13437,26.5
13439,10.1
13440,2.8
13441,-12.4
13445,10.6
13446,18.0
13449,17.3
13450,5.7
13453,23.3
13454,31.3
13456,25.8
13464,20.3
13466,10.8
13467,12.9
13469,7.9
13470,22.9
13476,26.6
13478,-4.7
13481,26.8
13482,7.6
13484,22.3
13489,23.5
13490,15.8
13491,41.6
13492,16.5
13494,26.9
13495,10.0
13496,10.9
13498,26.3
13502,19.1
13504,18.5
13508,18.9
13509,3.5
13510,11.6
13511,23.2
13512,12.4
13513,11.5
13516,13.3
13519,24.3
13520,5.8
13525,6.6
13527,20.8
13529,13.3
13530,4.8
13531,8.6
13537,14.3
13538,21.9
13539,13.5
13541,-22.7
13544,14.1
13545,17.8
13547,3.7
13548,20.7
13550,9.6
13554,23.6
13555,2.6
13560,9.4
13561,8.7
13566,0.5
13568,25.3
13570,15.6
13572,20.4
13574,18.8
13575,8.5
13576,25.0
13578,11.7
13579,-4.7
13580,25.8
13583,4.2
13586,3.0
13588,19.0
13589,6.1
13591,41.6
13592,27.5
13603,18.5
13606,14.6
13609,5.1
13610,18.7
13611,10.3
13613,12.6
13616,10.8
13617,19.8
13618,5.0
13620,19.5
13624,14.2
13625,5.3
13628,21.0
13630,25.5
13631,27.0
13637,23.0
13640,25.7
13641,-20.1
13642,7.6
13643,6.2
13644,4.9
13646,13.1
13647,19.8
13649,4.2
13650,3.4
13652,15.1
13653,7.9
13654,18.1
13655,21.0
13657,6.1
13658,17.4
13661,8.4
13662,16.7
13665,4.0
13666,10.4
13667,-2.1
13668,7.7
13669,14.0
13670,22.2
13671,5.0
13676,2.7
13679,-15.0
13683,5.6
13684,15.4
13685,13.7
13686,2.0
13687,18.7
13690,11.0
13692,31.3
13695,17.5
13696,18.1
13697,21.0
13699,11.7
13701,7.1
13702,8.6
13706,10.8
13707,10.3
13710,2.3
13712,27.7
13713,2.2
13717,22.2
13718,-4.7
13720,11.8
13721,23.0
13725,8.3
13726,14.9
13727,17.9
13730,41.6
13732,25.1
13734,21.4
13735,10.1
13738,11.0
13739,3.4
13743,18.5
13745,17.5
13746,15.1
13755,10.8
13762,13.8
13763,12.3
13765,8.2
13766,22.3
13767,18.5
13769,9.1
13770,17.7
13771,20.7
13772,7.3
13773,12.6
13775,19.9
13776,19.7
13777,9.7
13780,-25.3
13787,3.8
13788,20.5
13790,5.8
13791,22.5
13792,16.1
13793,4.5
13794,21.0
13799,4.0
13800,8.3
13801,16.3
13806,0.5
13809,5.4
13811,6.5
13812,3.3
13813,21.5
13815,4.6
13816,8.4
13817,-7.2
13818,11.8
13819,4.6
13820,10.1
13827,5.9
13828,4.6
13830,41.6
13831,15.9
13832,16.2
13833,11.4
13835,8.1
13837,2.8
13838,16.3
13840,7.1
13841,21.0
13843,18.5
13844,24.9
13846,19.5
13847,15.6
13850,20.8
13852,18.6
13855,10.8
13857,7.8
13858,23.9
13859,8.2
13863,16.7
13864,19.4
13865,4.2
13867,26.4
13868,26.2
13869,14.5
13872,8.4
13874,11.9
13875,2.3
13876,21.5
13878,17.4
13880,-12.4
13881,10.0
13882,14.6
13883,14.5
13887,3.2
13888,2.6
13893,21.0
13894,5.4
13896,8.7
13897,20.6
13899,22.3
13900,27.1
13903,25.7
13905,13.9
13906,-2.1
13909,13.3
13912,9.0
13913,11.5
13915,22.7
13916,22.7
13919,-15.0
13921,19.5
13924,23.8
13927,10.3
13928,6.7
13929,13.9
13930,15.8
13932,31.3
13934,4.1
13936,4.9
13937,22.3
13938,21.6
13942,18.2
13944,8.2
13946,22.8
13949,9.9
13950,8.7
13952,11.4
13953,17.7
13956,0.5
13957,5.7
13961,12.3
13964,10.8
13965,23.4
13966,17.6
13967,28.8
13968,13.8
13970,15.0
13972,8.1
13973,13.6
13976,19.8
13978,5.0
13979,21.6
13980,-4.7
13982,15.0
13984,12.8
13985,5.7
13987,13.1
13990,17.2
13991,12.4
13992,26.2
13993,5.5
13994,12.4
13998,23.6
14003,26.0
14004,13.5
14005,5.6
14007,7.7
14008,2.7
14011,11.4
14014,7.4
14016,-4.7
14018,4.6
14019,16.2
14021,24.2
14022,14.4
14023,9.4
14026,27.8
14028,41.6
14029,6.3
14032,5.6
14039,19.9
14041,26.1
14042,18.5
14043,21.8
14047,9.5
14051,11.9
14052,3.8
14053,9.7
14054,13.3
14059,12.2
14060,11.9
14063,14.9
14066,8.2
14067,7.3
14068,7.7
14070,9.7
14072,19.7
14073,3.9
14075,13.9
14076,22.3
14077,-15.0
14078,19.8
14080,6.5
14083,19.4
14088,11.7
14089,9.7
14090,7.9
14091,31.3
14092,17.6
14095,27.7
14096,21.2
14097,7.4
14102,26.0
14103,8.8
14104,10.8
14105,2.7
14106,8.5
14107,10.1
14109,16.0
14113,16.7
14114,17.4
14116,-4.7
14117,25.5
14120,26.1
14123,7.6
14128,16.3
14129,41.6
14130,22.3
14131,8.0
14135,2.7
14136,16.1
14141,15.9
14142,14.6
14145,17.7
14146,18.7
14150,12.4
14153,13.3
14155,7.9
14157,23.9
14160,21.9
14162,17.0
14163,6.7
14164,26.8
14166,18.5
14174,22.3
14175,20.4
14176,26.6
14177,5.0
14179,-25.3
14181,18.7
14183,14.5
14184,3.5
14192,23.6
14193,10.6
14194,7.8
14198,3.7
14199,25.6
14200,3.3
14204,0.5
14206,21.3
14208,19.8
14209,17.1
14210,4.1
14212,13.7
14213,5.3
14216,-7.2
14218,6.1
14219,14.5
14221,15.5
14222,2.5
14225,15.9
14227,13.6
14228,41.6
14229,17.2
14233,27.7
14234,12.4
14235,3.4
14236,23.5
14241,18.5
14242,10.7
14245,13.7
14246,17.9
14249,22.5
14254,13.3
14255,20.9
14256,19.1
14257,23.6
14259,14.4
14264,9.4
14265,18.0
14266,23.6
14267,18.2
14269,3.5
14270,6.2
14271,24.6
14272,4.8
14273,5.2
14274,9.3
14276,24.2
14277,22.6
14278,-17.5
14280,27.7
14285,11.3
14286,21.2
14288,16.4
14289,15.9
14290,4.7
14291,21.0
14293,26.5
14294,27.2
14295,13.2
14296,14.8
14297,18.4
14301,19.8
14303,26.9
14304,20.4
14305,0.5
14306,12.6
14307,8.3
14308,27.8
14310,7.2
14311,4.4
14312,17.5
14313,27.5
14314,11.5
14315,11.2
14316,-9.8
14317,23.3
14323,21.4
14326,21.6
14328,39.1
14330,4.7
14331,17.5
14332,17.8
14333,7.7
14334,25.8
14336,15.2
14338,4.3
14340,23.8
14341,21.0
14343,7.5
14344,24.2
14345,20.5
14346,18.9
14347,25.1
14348,3.4
14349,15.8
14350,26.6
14353,8.2
14354,20.1
14355,5.0
14359,7.4
14361,23.4
14364,-4.7
14366,15.0
14368,13.1
14370,14.8
14373,6.9
14374,19.8
14377,-20.1
14378,6.5
14379,12.1
14380,22.9
14381,20.0
14382,13.0
14387,5.1
14389,23.8
14390,4.0
14391,23.6
14392,18.0
14394,15.7
14395,9.0
14397,3.0
14401,24.0
14403,5.6
14405,10.1
14408,17.7
14411,3.5
14413,14.4
14414,-2.1
14415,6.2
14417,11.3
14418,9.7
14419,15.4
14420,10.7
14421,7.8
14424,20.1
14425,25.5
14427,39.1
14430,23.3
14432,8.1
14434,17.5
14435,17.2
14438,21.7
14440,18.5
14448,5.2
14450,14.5
14452,13.3
14454,9.2
14457,21.0
14458,17.7
14459,6.0
14463,25.7
14465,5.6
14469,22.2
14473,25.2
14476,-12.4
14479,4.8
14482,23.0
14487,3.8
14489,31.3
14490,17.6
14491,21.2
14492,10.4
14493,24.9
14494,3.7
14502,10.8
14504,21.2
14505,27.5
14506,26.7
14510,8.6
14511,14.8
14512,12.9
14515,-4.7
14516,6.7
14517,26.3
14518,23.3
14520,27.8
14522,20.4
14524,12.6
14525,3.0
14526,20.1
14527,41.6
14530,12.3
14532,16.9
14533,8.8
14534,8.7
14536,23.4
14539,18.5
14543,20.8
14547,16.4
14549,10.3
14550,4.4
14552,10.8
14553,12.1
14555,22.2
14557,17.7
14558,2.2
14561,22.1
14564,13.3
14566,14.2
14570,12.4
14572,19.2
14577,-22.7
14578,10.8
14581,26.9
14582,3.2
14583,17.3
14584,20.1
14588,10.0
14590,21.0
14591,24.9
14592,17.1
14593,14.1
14595,18.4
14596,25.8
14601,2.8
14602,27.6
14603,3.0
14605,17.9
14606,24.5
14607,20.3
14608,14.0
14614,-7.2
14615,18.5
14621,25.2
14622,10.5
14623,26.6
14624,26.1
14625,12.9
14626,41.6
14632,15.2
14634,3.7
14636,7.4
14637,27.0
14638,14.2
14639,26.3
14640,21.0
14642,13.8
14646,14.4
14648,5.5
14650,14.4
14652,13.3
14654,7.9
14655,9.6
14657,2.3
14659,25.9
14660,9.9
14663,18.9
14664,21.0
14666,18.8
14668,21.1
14669,26.6
14670,4.4
14671,18.0
14672,24.9
14674,23.8
14675,8.0
14676,-20.1
14680,23.0
14681,12.7
14684,25.7
14686,6.8
14689,8.1
14690,21.0
14694,10.1
14696,25.4
14699,4.4
14700,16.2
14702,18.9
14703,-2.1
14705,10.1
14715,-15.0
14716,9.0
14717,9.7
14719,27.3
14722,24.7
14729,28.8
14730,9.0
14734,19.4
14736,19.4
14738,6.1
14739,9.3
14741,10.8
14743,23.0
14746,21.6
14747,2.2
14752,17.6
14753,-4.7
14754,13.4
14755,11.1
14757,25.3
14758,4.4
14760,19.4
14763,15.4
14765,19.1
14766,41.6
14767,27.5
14770,12.8
14772,9.1
14773,17.9
14775,17.0
14776,4.7
14779,18.5
14781,14.9
14782,7.0
14783,16.0
14784,20.4
14786,25.3
14788,14.2
14789,10.3
14791,10.8
14795,23.6
14798,5.5
14801,23.8
14803,18.5
14806,27.7
14807,19.8
14810,18.2
14812,15.2
14815,23.4
14816,-22.7
14818,12.0
14819,4.0
14820,25.4
14821,22.3
14824,2.7
14826,7.2
14828,12.0
14829,21.0
14830,18.0
14837,6.7
14839,17.0
14840,27.7
14842,0.5
14848,2.9
14850,26.9
14851,8.3
14852,11.9
14854,-7.2
14856,11.9
14857,17.2
14858,26.4
14859,13.0
14862,6.5
14863,6.4
14864,11.0
14865,8.0
14866,39.1
14868,12.0
14871,16.8
14873,4.4
14875,3.7
14876,23.4
14877,22.3
14878,18.5
14879,7.0
14882,19.6
14883,23.7
14885,22.6
14887,22.4
14890,9.9
14891,10.8
14892,9.3
14894,18.4
14899,5.9
14900,2.1
14901,13.0
14904,23.6
14907,6.6
14912,21.4
14915,9.0
14916,-15.0
14917,7.0
14919,23.0
14923,19.5
14927,16.0
14928,8.0
14929,21.0
14933,8.2
14936,7.4
14942,-2.1
14946,11.6
14954,-15.0
14955,26.4
14956,21.2
14957,11.9
14963,25.5
14966,8.6
14967,3.0
14968,28.8
14970,13.3
14977,23.0
14979,23.1
14981,8.2
14982,6.6
14985,8.5
14988,16.6
14990,12.0
14991,18.1
14992,0.5
14996,5.5
14997,10.6
14998,2.5
15001,9.0
15003,28.8
15005,10.8
15007,23.7
15010,17.0
15013,11.0
15014,27.3
15015,-4.7
15016,24.2
15020,18.5
15022,26.3
15025,23.0
15026,27.7
15027,17.8
15028,23.6
15032,24.9
15036,26.0
15037,23.9
15040,24.5
15041,3.0
15042,8.5
15046,13.1
15047,25.5
15048,24.7
15051,13.0
15052,-4.7
15055,10.5
15056,10.4
15058,4.5
15060,24.4
15062,12.5
15064,3.2
15065,41.6
15067,13.9
15069,22.9
15070,15.6
15072,2.1
15073,21.8
15077,18.5
15079,22.8
15083,10.8
15084,5.5
15085,15.2
15086,13.8
15087,26.3
15089,13.3
15094,27.6
15095,21.2
15096,17.9
15098,12.5
15099,11.8
15101,27.0
15102,10.8
15105,13.2
15108,17.3
15110,17.9
15111,8.7
15113,2.4
15115,-22.7
15119,20.2
15120,13.9
15122,24.2
15124,18.7
15125,24.7
15126,24.5
15127,13.3
15128,23.6
15130,3.3
15131,24.0
15132,18.2
15133,25.6
15134,4.1
15135,27.0
15136,7.6
15138,15.6
15140,3.0
15142,22.7
15144,26.7
15147,26.2
15150,13.6
15152,-7.2
15153,10.8
15154,14.5
15157,11.3
15161,13.2
15164,41.6
15166,10.5
15168,19.0
15169,4.0
15170,20.9
15171,13.0
15174,2.5
15177,18.5
15179,4.5
15180,14.8
15182,9.6
15186,16.6
15187,20.8
15188,6.7
15190,10.8
15196,9.4
15198,7.4
15199,27.1
15200,17.9
15202,15.9
15205,18.6
15206,13.3
15208,15.4
15209,2.5
15210,27.4
15212,26.1
15213,10.4
15214,-22.7
15215,25.6
15216,18.8
15217,22.3
15221,12.6
15222,20.4
15224,22.6
15227,21.0
15228,8.0
15230,10.9
15231,3.2
15232,23.4
15236,21.5
15238,8.9
15241,0.5
15245,6.6
15247,16.6
15249,3.9
15251,23.6
15252,-4.7
15257,16.0
15258,6.4
15264,41.6
15265,10.6
15268,13.6
15269,9.8
15274,2.9
15276,5.4
15277,18.5
15278,3.4
15279,24.4
15284,24.3
15289,8.2
15292,16.0
15295,24.7
15298,28.0
15299,13.1
15301,-2.1
15305,6.5
15306,11.8
15307,23.6
15308,15.4
15310,22.5
15311,18.4
15313,-17.5
15315,21.8
15317,8.5
15319,18.8
15320,16.9
15322,21.7
15324,12.6
15325,16.5
15327,26.2
15328,3.3
15331,12.0
15334,10.4
15335,11.1
15339,8.2
15345,2.5
15347,23.8
15348,2.6
15349,4.1
15350,-2.1
15351,21.9
15357,13.4
15358,17.0
15359,17.6
15360,4.2
15362,23.0
15363,41.6
15365,18.9
15367,2.0
15368,9.6
15370,25.9
15371,24.4
15372,5.8
15373,24.6
15374,20.4
15375,14.0
15376,15.9
15377,15.6
15380,21.7
15383,3.3
15385,7.6
15388,15.9
15389,10.5
15391,5.8
15398,26.6
15399,21.4
15400,-2.1
15402,7.6
15403,9.9
15404,9.3
15407,18.4
15408,8.7
15410,15.2
15413,-20.1
15417,17.5
15422,21.4
15423,20.7
15424,8.0
15425,16.0
15426,26.2
15428,19.5
15435,5.9
15436,7.8
15437,13.4
15438,13.0
15439,5.6
15442,14.4
15445,23.9
15446,25.5
15447,13.7
15450,7.7
15451,-4.7
15452,5.2
15453,13.6
15459,9.3
15463,41.6
15469,11.3
15470,14.0
15471,13.1
15475,15.9
15478,19.6
15479,25.1
15481,12.1
15483,26.5
15484,13.6
15486,10.1
15487,3.1
15488,13.3
15489,18.0
15490,25.6
15501,5.6
15502,25.8
15505,17.7
15506,23.2
15508,8.9
15511,14.9
15512,-15.0
15516,22.1
15518,11.7
15520,9.1
15524,9.5
15525,28.8
15529,8.2
15530,9.4
15534,15.1
15535,10.7
15537,17.3
15538,10.8
15539,24.1
15540,13.6
15542,14.0
15547,8.6
15548,23.5
15550,-4.7
15551,2.7
15554,21.6
15556,8.2
15562,41.6
15565,12.1
15566,12.9
15567,14.4
15570,2.7
15571,24.7
15574,2.6
15576,18.5
15577,24.5
15579,13.0
15580,11.2
15581,10.0
15582,13.6
15588,10.8
15592,7.2
15593,4.3
15596,10.2
15597,14.3
15598,7.4
15599,22.2
15600,15.9
15601,3.5
15602,17.3
15603,22.5
15604,18.7
15606,3.2
15610,24.1
15611,21.2
15612,-22.7
15613,22.7
15617,11.7
15623,11.3
15624,15.2
15626,21.0
15628,8.3
15630,9.6
15631,8.8
15633,8.3
15635,27.6
15637,22.8
15638,19.0
15639,0.5
15640,13.0
15642,8.4
15644,26.8
15646,25.8
15647,24.5
15648,5.4
15650,-7.2
15652,12.7
15655,27.6
15656,18.4
15660,25.8
15663,41.6
15666,19.4
15669,2.4
15670,26.9
15672,8.8
15675,18.5
15678,2.8
15679,28.0
15680,21.2
15681,3.8
15682,21.1
15683,23.2
15684,17.2
15687,13.3
15690,21.6
15691,11.4
15693,13.0
15694,4.0
15695,19.9
15696,17.5
15700,18.5
15701,16.8
15703,21.1
15706,23.7
15707,27.8
15708,4.3
15709,4.6
15710,25.1
15712,15.1
15713,-17.5
15714,21.5
15716,13.6
15717,26.2
15718,12.4
15719,4.0
15720,21.0
15722,14.2
15723,13.1
15724,4.4
15726,21.0
15728,18.7
15729,18.8
15731,15.3
15732,19.4
15738,0.5
15742,9.3
15744,14.0
15745,17.2
15746,12.4
15748,18.9
15750,-7.2
15751,22.3
15752,12.0
15753,25.0
15755,20.4
15759,2.4
15761,11.7
15762,39.1
15764,5.5
15766,12.5
15769,27.4
15770,17.2
15772,2.4
15775,18.5
15777,18.7
15783,3.8
15784,20.7
15785,20.2
15788,8.2
15791,20.0
15792,2.1
15799,-2.1
15801,6.7
15808,20.3
15809,14.9
15810,25.6
15811,-20.1
15812,24.2
15814,10.2
15817,23.8
15818,19.7
15819,18.2
15820,13.0
15821,25.8
15824,26.2
15825,3.7
15828,3.4
15830,3.7
15831,24.8
15832,15.8
15833,11.8
15834,10.0
15835,10.0
15838,5.6
15839,24.6
15841,7.5
15843,17.4
15845,4.3
15849,-2.1
15850,13.8
15851,21.3
15854,10.8
15857,8.8
15861,41.6
15863,9.8
15866,9.9
15867,5.3
15868,6.9
15869,17.7
15872,9.3
15873,2.4
15874,15.9
15876,25.3
15879,24.7
15884,6.3
15886,13.3
15887,20.8
15888,22.4
15890,14.5
15891,7.9
15892,11.3
15894,4.1
15899,3.0
15902,25.8
15904,19.7
15905,21.6
15907,12.6
15910,-12.4
15912,10.1
15914,24.5
15918,14.9
15919,9.9
15920,7.3
15921,27.2
15924,31.3
15925,25.9
15926,4.0
15928,19.5
15936,13.3
15937,2.2
15939,11.2
15942,11.7
15943,9.0
15946,26.6
15948,-4.7
15950,12.9
15952,10.3
15954,23.2
15955,11.1
15956,26.7
15957,26.3
15961,41.6
15962,22.2
15965,11.5
15967,6.4
15968,5.1
15969,16.3
15974,18.5
15976,10.5
15985,24.8
15986,10.8
15987,23.0
15991,3.5
15998,10.8
15999,17.0
16000,9.9
16002,25.0
16005,22.6
16009,4.0
16010,6.4
16011,-22.7
16020,27.9
16022,27.5
16024,23.6
16025,10.6
16026,23.0
16029,23.8
16030,27.3
16031,4.9
16037,3.0
16038,14.0
16046,21.7
16049,-7.2
16052,6.6
16053,16.0
16056,26.5
16059,4.5
16061,41.6
16062,7.7
16064,15.8
16065,26.8
16067,4.4
16072,25.2
16073,18.5
16074,21.9
16076,21.0
16078,27.8
16080,27.0
16083,3.7
16085,8.7
16086,10.8
16088,12.0
16092,8.7
16093,20.3
16094,27.5
16095,6.5
16096,25.8
16098,18.5
16101,4.7
16102,17.8
16110,11.6
16111,-22.7
16112,14.0
16113,23.9
16115,27.4
16116,24.0
16117,23.9
16120,21.1
16123,4.6
16124,21.0
16125,3.6
16128,10.2
16130,14.3
16135,7.0
16136,4.4
16137,0.5
16138,4.3
16139,20.8
16140,4.3
16145,8.5
16148,-9.8
16155,10.6
16157,18.7
16160,39.1
16166,11.4
16167,24.1
16174,18.5
16175,26.8
16177,10.3
16180,3.0
16181,3.5
16183,10.0
16184,2.3
16185,13.5
16186,8.2
16187,4.3
16189,20.5
16191,25.2
16193,18.0
16194,25.1
16197,-4.7
16198,12.6
16199,18.0
16201,9.9
16203,22.0
16204,10.3
16207,12.6
16209,-20.1
16210,23.8
16211,13.2
16212,21.5
16213,9.9
16218,27.7
16223,26.2
16224,9.9
16228,22.4
16232,21.3
16233,6.8
16234,17.4
16235,5.7
16236,5.6
16237,26.4
16239,24.3
16240,17.5
16241,10.9
16242,3.4
16243,10.0
16245,4.1
16247,0.5
16249,18.1
16250,21.1
16254,4.7
16255,12.9
16259,33.9
16260,4.7
16262,20.1
16264,11.9
16267,18.7
16269,19.9
16270,4.4
16271,3.0
16273,3.5
16275,21.6
16276,23.8
16277,20.3
16279,15.7
16282,28.8
16287,5.4
16289,19.3
16291,5.5
16292,21.2
16294,10.8
16298,12.5
16300,5.7
16301,23.4
16302,26.1
16306,6.0
16307,4.2
16308,-4.7
16315,23.1
16320,41.6
16321,11.3
16322,18.6
16323,6.4
16324,22.3
16327,23.7
16329,16.8
16331,11.9
16332,18.5
16334,5.8
16335,15.8
16338,18.4
16341,14.9
16343,22.8
16345,10.8
16346,20.4
16347,21.4
16348,2.3
16351,16.8
16352,5.6
16353,22.8
16356,18.5
16357,18.5
16358,26.4
16361,18.5
16362,14.8
16367,21.8
16370,-22.7
16372,16.3
16374,13.9
16377,20.3
16378,6.1
16379,2.8
16382,27.0
16384,21.0
16385,19.2
16388,25.7
16390,9.0
16392,10.8
16393,14.8
16396,0.5
16397,5.3
16399,22.9
16403,16.5
16404,26.4
16405,5.8
16407,-7.2
16410,11.1
16413,9.7
16414,6.8
16415,20.6
16416,3.2
16417,19.6
16418,15.3
16419,41.6
16420,26.1
16422,18.7
16425,20.4
16428,5.8
16429,18.4
16430,15.4
16431,2.4
16433,18.5
16436,11.9
16438,9.5
16440,2.7
16441,22.6
16445,8.2
16449,23.6
16450,8.8
16451,12.9
16452,11.3
16453,9.8
16456,-4.7
16459,14.4
16461,13.7
16462,22.9
16466,20.0
16468,-17.5
16469,17.8
16470,10.9
16471,20.7
16472,2.6
16474,24.6
16475,18.5
16476,27.3
16482,28.8
16483,17.2
16484,10.6
16485,12.2
16488,19.9
16489,7.3
16490,4.4
16492,12.1
16493,18.3
16494,5.6
16496,11.2
16497,22.9
16501,7.7
16505,16.5
16506,-2.1
16507,15.8
16508,26.1
16511,13.5
16512,24.9
16514,11.0
16515,20.1
16518,25.7
16519,41.6
16520,17.9
16524,23.6
16526,3.9
16529,12.1
16530,26.9
16531,15.9
16532,12.8
16537,5.3
16539,26.1
16541,23.9
16543,13.3
16545,2.6
16547,4.3
16549,4.5
16556,0.5
16559,20.9
16564,7.0
16565,11.9
16567,26.0
16568,-15.0
16570,14.5
16572,17.3
16574,19.3
16575,13.6
16578,24.9
16581,31.3
16589,21.6
16592,18.0
16593,13.3
16596,7.6
16598,2.4
16599,10.6
16601,21.8
16602,21.0
16604,24.3
16606,-4.7
16607,15.5
16608,22.7
16609,21.9
16611,21.0
16612,16.6
16614,26.7
16615,16.8
16617,10.0
16618,41.6
16619,17.3
16623,21.6
16625,8.8
16626,23.0
16627,21.0
16629,26.9
16630,18.5
16631,8.1
16635,13.5
16636,16.6
16637,17.3
16638,25.0
16640,26.9
16641,12.6
16642,7.6
16644,13.3
16651,3.5
16655,16.7
16656,8.2
16657,20.9
16659,5.3
16662,21.0
16663,14.8
16664,23.0
16666,8.7
16667,-17.5
16668,15.3
16671,15.4
16672,23.2
16678,15.7
16679,22.0
16680,31.3
16685,23.7
16688,10.6
16689,19.9
16692,5.9
16693,10.8
16694,25.2
16695,11.6
16696,19.3
16697,19.2
16700,19.3
16703,24.7
16705,6.1
16706,-4.7
16707,25.6
16708,20.6
16709,25.4
16711,21.8
16713,4.9
16718,41.6
16719,7.7
16720,8.4
16723,7.5
16725,13.4
16728,15.3
16729,10.9
16731,18.5
16741,15.9
16743,10.8
16746,9.7
16750,26.5
16751,13.0
16752,25.6
16754,18.6
16755,18.5
16759,15.1
16760,17.9
16761,12.4
16763,10.4
16767,16.3
16769,-22.7
16772,14.5
16773,9.0
16776,9.3
16777,10.5
16778,16.9
16779,10.7
16781,4.1
16782,21.0
16791,11.3
16792,7.2
16794,0.5
16797,26.4
16801,10.4
16803,11.0
16805,-7.2
16807,22.5
16808,10.6
16810,18.3
16813,26.0
16815,20.2
16818,41.6
16819,14.7
16822,16.0
16826,13.9
16827,9.2
16829,27.1
16830,21.0
16833,3.7
16836,18.5
16841,27.2
16842,12.0
16843,10.8
16846,25.1
16847,26.1
16848,13.1
16849,10.4
16850,5.1
16851,21.5
16852,5.1
16853,18.0
16856,23.6
16858,14.8
16862,8.7
16863,7.8
16868,-15.0
16870,17.9
16871,11.2
16872,10.3
16873,22.0
16874,22.2
16876,13.3
16877,25.1
16878,17.9
16879,13.5
16881,18.5
16883,17.6
16884,8.2
16893,-2.1
16896,20.8
16897,25.8
16900,3.3
16906,26.8
16907,-15.0
16908,11.1
16909,15.1
16911,6.8
16915,23.7
16917,12.3
16919,7.0
16920,28.8
16929,3.0
16930,21.7
16931,10.5
16932,10.8
16934,14.4
16935,18.6
16937,6.5
16940,9.3
16941,5.3
16943,9.3
16944,16.1
16945,-4.7
16947,21.4
16948,9.9
16951,19.2
16953,6.4
16954,11.9
16955,16.4
16957,41.6
16960,16.8
16961,15.5
16962,8.6
16964,19.0
16966,3.3
16968,4.2
16969,18.5
16970,18.5
16973,15.2
16977,2.9
16983,10.8
16984,2.2
16986,7.3
16987,25.7
16988,16.4
16989,3.9
16990,24.2
16993,24.6
16995,21.0
16998,13.4
17001,8.3
17003,22.7
17006,15.7
17007,-17.5
17011,12.4
17012,21.4
17013,4.7
17015,11.0
17019,8.8
17020,21.0
17025,12.8
17032,2.4
17034,0.5
17035,8.4
17039,6.0
17042,12.2
17043,18.0
17045,-9.8
17046,13.4
17048,24.3
17050,26.2
17051,23.4
17052,12.5
17057,41.6
17064,20.2
17067,14.9
17069,3.3
17070,18.5
17072,10.7
17073,7.4
17074,26.1
17076,24.2
17080,9.8
17081,16.9
17082,10.8
17086,4.8
17087,20.0
17088,20.5
17091,23.3
17092,11.1
17094,26.2
17095,13.6
17096,18.3
17102,19.8
17103,22.9
17107,-9.8
17108,11.5
17111,3.1
17113,27.5
17114,24.9
17115,26.7
17117,27.2
17118,20.8
17119,24.1
17120,26.2
17121,18.9
17122,19.1
17125,16.5
17129,24.4
17130,19.5
17131,13.8
17132,5.6
17133,24.7
17134,16.3
17135,4.3
17139,6.1
17143,-2.1
17146,6.7
17149,8.8
17152,26.5
17155,11.6
17156,39.1
17160,14.4
17161,15.3
17164,9.5
17165,12.3
17166,13.6
17167,17.8
17168,23.6
17169,18.5
17170,23.6
17171,23.6
17172,4.1
17174,22.3
17175,16.6
17177,16.8
17179,4.6
17180,15.1
17181,13.3
17183,13.9
17185,11.7
17187,3.8
17190,16.9
17191,19.9
17193,5.6
17196,9.8
17197,22.6
17199,17.7
17204,6.3
17205,-15.0
17209,7.4
17216,4.6
17218,33.9
17221,25.9
17222,18.1
17224,6.6
17228,21.7
17229,21.8
17231,10.8
17235,15.5
17240,18.7
17241,19.2
17242,14.4
17243,13.4
17244,-4.7
17245,13.3
17246,11.9
17247,10.3
17252,25.3
17253,14.5
17255,11.4
17256,41.6
17258,9.9
17259,17.9
17262,18.9
17266,20.4
17267,18.6
17268,18.5
17270,10.0
17271,27.6
17274,13.2
17278,14.2
17279,14.8
17280,10.7
17281,13.3
17283,12.7
17285,16.7
17288,26.7
17293,13.3
17294,20.9
17296,23.6
17297,8.9
17299,17.9
17300,25.3
17301,14.7
17302,26.6
17304,20.0
17305,9.8
17306,-22.7
17311,4.9
17314,7.5
17315,17.4
17316,14.1
17318,27.8
17319,23.6
17321,19.3
17322,4.9
17325,26.7
17329,18.7
17332,3.0
17342,14.0
17343,-7.2
17344,24.3
17346,21.9
17347,18.0
17349,8.8
17353,19.2
17355,41.6
17356,23.3
17357,19.1
17358,20.1
17363,14.6
17365,6.5
17368,26.5
17369,21.0
17375,14.2
17377,15.0
17379,12.4
17381,10.8
17382,4.7
17384,10.9
17386,18.9
17387,21.0
17388,14.7
17391,4.5
17393,21.0
17394,15.9
17395,24.8
17397,11.7
17398,7.6
17402,19.3
17403,5.9
17405,-20.1
17406,24.4
17408,15.9
17410,27.1
17412,11.1
17413,2.5
17414,22.2
17416,21.5
17417,22.4
17418,23.8
17419,21.0
17422,14.6
17425,17.5
17429,23.7
17432,0.5
17433,11.4
17435,15.0
17436,19.0
17437,12.5
17438,6.0
17439,25.3
17442,15.8
17443,-7.2
17444,25.6
17447,18.3
17449,5.1
17452,7.0
17454,6.4
17456,41.6
17458,7.5
17463,21.1
17464,22.5
17468,18.5
17472,18.6
17473,13.5
17474,9.8
17478,14.1
17480,10.8
17481,8.5
17482,23.0
17485,27.9
17486,13.6
17490,20.6
17491,8.6
17492,26.2
17494,27.5
17498,19.4
17499,14.7
17501,23.0
17502,23.3
17505,8.4
17506,-9.8
17509,9.6
17511,16.5
17517,20.6
17518,26.2
17519,16.9
17520,27.9
17521,15.5
17524,7.6
17525,26.4
17529,11.7
17530,5.6
17532,21.9
17534,3.0
17538,14.0
17539,7.0
17540,23.4
17542,-2.1
17543,4.6
17548,4.0
17553,11.0
17554,41.6
17555,19.6
17556,19.1
17557,3.0
17561,4.7
17562,21.5
17564,26.4
17565,14.0
17566,22.6
17567,15.9
17568,9.0
17570,2.9
17571,16.1
17575,20.2
17578,6.6
17580,15.9
17582,15.8
17584,10.2
17586,4.5
17591,25.5
17592,3.0
17593,6.1
17595,21.5
17596,11.5
17598,23.1
17600,8.1
17601,16.3
17602,22.6
17603,-12.4
17607,17.2
17610,13.6
17616,33.9
17617,19.6
17618,11.2
17619,7.1
17620,13.1
17621,28.0
17624,11.6
17625,19.5
17626,11.3
17627,15.7
17629,13.3
17631,12.6
17632,14.7
17638,13.8
17639,5.5
17640,16.0
17641,9.0
17642,-4.7
17644,4.2
17647,7.6
17649,22.8
17653,23.3
17654,41.6
17655,21.6
17658,17.9
17659,3.9
17660,6.9
17661,17.7
17662,25.7
17663,10.1
17667,18.5
17669,14.8
17671,10.1
17674,18.0
17678,13.2
17679,13.3
17681,24.1
17682,26.0
17683,10.2
17688,20.5
17690,20.9
17691,10.8
17693,12.8
17698,22.0
17702,25.0
17704,-22.7
17706,26.7
17710,9.0
17713,27.0
17715,7.1
17717,22.0
17718,23.6
17720,27.3
17722,19.4
17727,19.3
17728,25.8
17729,19.5
17730,0.5
17731,7.9
17732,11.5
17735,18.4
17737,23.9
17739,16.6
17741,-4.7
17743,6.0
17746,23.4
17747,15.4
17750,27.3
17753,10.9
17754,41.6
17756,26.7
17757,19.4
17759,8.2
17760,21.0
17761,23.1
17762,26.6
17767,18.5
17771,20.4
17773,22.8
17776,5.7
17777,15.2
17778,21.9
17779,13.3
17782,12.1
17783,26.4
17787,4.7
17792,18.5
17793,23.1
17794,19.5
17797,26.9
17800,22.7
17802,6.3
17803,8.9
17804,-22.7
17805,19.1
17806,10.4
17807,6.1
17808,11.8
17809,26.0
17811,17.2
17812,22.5
17813,16.2
17817,21.0
17819,23.0
17825,5.8
17827,10.7
17828,18.1
17829,10.0
17830,0.5
17832,27.4
17833,21.7
17834,13.7
17835,8.9
17837,18.4
17838,11.8
17839,11.7
17840,7.6
17841,11.7
17842,-7.2
17843,23.3
17844,9.3
17845,26.0
17846,4.8
17847,4.5
17853,22.1
17854,41.6
17855,15.8
17856,24.1
17857,25.5
17858,10.9
17860,7.6
17861,26.0
17862,6.9
17863,27.1
17866,18.5
17867,19.9
17868,5.8
17870,7.4
17871,23.5
17874,18.7
17879,10.8
17881,4.6
17888,17.4
17891,26.2
17894,13.6
17895,26.7
17898,13.1
17899,9.8
17903,4.6
17904,-15.0
17908,22.2
17909,9.3
17910,14.9
17913,4.1
17914,11.9
17915,5.5
17917,18.5
17918,2.7
17920,3.9
17921,19.2
17924,8.3
17925,8.3
17926,8.9
17927,3.6
17928,4.5
17929,6.8
17930,-2.1
17931,6.4
17932,7.4
17933,12.1
17934,7.1
17937,15.2
17938,24.8
17940,12.3
17941,9.6
17942,-17.5
17946,25.6
17947,3.2
17949,16.9
17951,27.8
17953,19.2
17955,28.8
17958,14.6
17959,4.8
17960,16.1
17965,22.2
17967,11.8
17969,10.8
17970,21.3
17971,11.7
17974,14.6
17976,19.0
17977,19.9
17978,3.7
17980,12.8
17981,-7.2
17986,26.9
17988,15.0
17993,41.6
17995,3.1
17999,16.2
18000,24.0
18006,18.5
18010,12.3
18011,3.3
18014,9.8
18016,15.0
18017,23.2
18018,10.8
18019,7.8
18020,7.9
18021,23.5
18022,6.2
18026,24.0
18028,19.0
18029,22.7
18030,8.7
18031,23.6
18032,13.2
18033,9.8
18042,17.3
18043,-15.0
18044,4.2
18045,3.0
18048,20.7
18050,19.8
18052,8.0
18055,19.7
18057,21.0
18060,12.1
18063,25.7
18066,22.7
18067,16.8
18068,27.1
18069,0.5
18070,20.7
18073,21.5
18074,18.8
18075,8.0
18077,5.4
18078,23.2
18080,-7.2
18081,27.9
18082,20.3
18085,17.5
18086,19.7
18089,5.2
18092,3.8
18093,41.6
18096,24.4
18097,16.5
18101,4.6
18102,12.3
18103,16.2
18106,18.5
18108,17.1
18109,14.1
18111,2.3
18112,9.2
18114,5.1
18118,10.8
18119,10.6
18122,8.4
18124,17.6
18126,18.6
18128,12.3
18130,28.8
18132,5.6
18133,24.7
18136,26.8
18137,12.4
18139,2.1
18140,6.5
18143,-7.2
18144,13.0
18146,21.1
18148,21.7
18149,16.3
18152,15.3
18155,26.2
18159,11.5
18160,9.2
18167,2.3
18168,5.6
18169,24.5
18172,26.1
18175,8.0
18176,22.1
18180,-2.1
18182,11.6
18183,8.0
18185,15.1
18190,9.7
18191,19.7
18192,41.6
18198,18.2
18199,4.1
18200,12.6
18201,13.7
18204,18.5
18209,25.0
18214,10.5
18216,13.3
18218,4.2
18220,10.1
18222,25.9
18223,11.8
18226,7.7
18228,19.9
18230,8.2
18232,11.0
18235,2.7
18236,6.2
18237,4.1
18238,3.2
18241,-15.0
18242,23.0
18244,4.3
18246,25.7
18249,8.4
18251,4.3
18252,10.6
18253,15.3
18254,31.3
18255,18.5
18267,10.8
18268,20.4
18270,16.7
18274,2.3
18277,7.7
18279,-4.7
18280,23.0
18282,24.4
18283,13.8
18285,14.8
18287,14.8
18288,24.3
18291,41.6
18296,20.2
18298,7.0
18299,11.0
18302,15.0
18304,25.6
18305,18.5
18306,25.2
18308,9.9
18311,5.4
18312,25.7
18313,20.2
18317,10.8
18320,2.1
18324,4.4
18325,12.2
18326,16.1
18327,8.0
18329,15.9
18336,18.5
18337,16.4
18339,10.3
18341,-25.3
18343,8.2
18344,12.0
18351,8.7
18353,21.7
18354,13.8
18355,21.0
18357,23.7
18358,13.9
18360,24.5
18361,13.3
18363,3.6
18368,0.5
18375,12.1
18376,7.8
18378,10.4
18379,-4.7
18389,26.8
18390,23.9
18391,26.2
18392,41.6
18394,22.8
18400,13.8
18402,18.5
18404,18.5
18406,23.9
18412,23.9
18413,18.6
18416,10.8
18419,14.3
18420,8.1
18426,7.9
18427,6.6
18429,23.6
18436,17.1
18442,-17.5
18443,12.9
18445,23.5
18449,20.9
18450,10.7
18451,21.6
18453,15.0
18454,27.5
18455,21.0
18461,27.9
18467,-2.1
18474,10.8
18475,22.3
18478,9.9
18479,9.3
18480,-15.0
18481,15.9
18485,3.1
18487,9.9
18488,24.7
18489,13.4
18492,22.9
18493,28.8
18495,23.9
18496,16.1
18497,27.8
18501,12.1
18504,24.3
18506,8.2
18507,24.0
18508,6.2
18514,3.3
18516,17.5
18517,24.1
18518,3.0
18520,25.2
18521,11.4
18526,17.1
18528,25.1
18529,26.2
18530,22.9
18539,12.8
18541,-7.2
18547,5.1
18548,4.8
18550,14.6
18553,26.2
18554,27.8
18560,14.3
18562,10.0
18567,5.6
18572,13.7
18574,9.5
18576,21.3
18578,-2.1
18579,12.9
18586,14.0
18588,15.3
18590,39.1
18591,22.5
18593,5.9
18595,12.1
18597,17.0
18598,9.7
18602,10.8
18603,15.9
18605,26.5
18608,19.7
18611,21.7
18613,17.1
18615,13.3
18617,17.8
18618,8.7
18619,19.8
18620,15.7
18621,11.1
18622,12.8
18626,23.9
18627,11.9
18628,3.0
18630,17.3
18634,17.5
18637,26.0
18639,-12.4
18643,26.8
18644,20.7
18646,12.6
18650,7.7
18653,28.8
18655,5.4
18656,12.7
18660,16.2
18663,2.9
18664,22.0
18665,10.8
18668,13.5
18671,13.5
18672,13.9
18673,17.5
18675,14.2
18677,-4.7
18678,21.7
18680,7.3
18684,16.7
18687,23.5
18690,41.6
18692,5.8
18694,7.8
18695,14.2
18696,6.8
18697,21.4
18698,21.7
18699,13.5
18701,19.4
18703,18.5
18704,4.2
18707,26.6
18712,21.7
18713,27.7
18714,5.2
18715,13.3
18717,16.4
18718,12.9
18719,6.9
18722,22.6
18724,12.6
18725,27.1
18727,13.3
18729,19.0
18730,6.4
18731,7.2
18733,8.0
18735,19.8
18736,22.2
18738,3.3
18740,-22.7
18741,5.7
18750,18.0
18753,23.6
18755,26.2
18757,8.6
18758,11.9
18759,22.5
18761,23.2
18762,25.1
18765,23.7
18766,3.0
18770,26.8
18771,11.8
18772,27.6
18773,8.7
18778,-4.7
18779,7.9
18783,25.8
18786,12.4
18790,41.6
18796,10.9
18798,5.4
18799,10.9
18801,16.0
18802,18.5
18805,12.2
18811,22.2
18814,13.3
18815,17.6
18818,4.3
18819,15.2
18820,8.3
18822,20.6
18824,3.3
18825,22.4
18827,18.5
18831,24.4
18834,8.9
18835,15.8
18837,23.5
18839,10.7
18840,-22.7
18842,15.8
18843,22.3
18844,10.9
18845,4.8
18847,27.0
18848,18.4
18851,21.9
18852,15.5
18853,18.5
18854,2.3
18856,6.3
18857,11.1
18858,10.1
18861,5.7
18862,22.9
18863,10.4
18865,27.3
18866,0.5
18870,12.7
18873,27.8
18874,27.2
18876,11.5
18877,-7.2
18879,22.8
18880,14.5
18882,24.4
18884,26.7
18885,16.3
18886,18.6
18887,13.6
18889,41.6
18895,12.3
18896,19.6
18897,3.1
18903,18.5
18907,20.8
18909,26.7
18911,6.4
18913,8.5
18915,8.2
18916,4.0
18917,14.5
18921,25.5
18922,4.4
18926,-2.1
18928,27.2
18932,25.5
18936,16.6
18937,27.1
18938,-17.5
18939,26.0
18942,26.7
18943,22.2
18946,19.2
18948,16.0
18949,14.3
18952,28.8
18953,15.6
18954,14.6
18955,25.9
18956,15.5
18957,7.3
18961,22.7
18962,4.0
18964,22.8
18965,5.6
18966,22.9
18968,16.8
18971,22.7
18974,6.5
18975,23.3
18976,-2.1
18977,14.3
18978,19.3
18979,12.2
18981,9.8
18982,13.1
18987,8.1
18989,41.6
18992,21.8
18994,16.1
18999,15.2
19000,14.2
19001,15.9
19002,2.5
19004,4.0
19005,3.1
19011,15.7
19012,10.1
19013,15.9
19015,19.8
19019,5.9
19020,2.6
19022,19.7
19025,0.5
19027,21.0
19029,19.1
19030,2.1
19032,20.8
19033,14.7
19036,9.7
19037,26.6
19038,-12.4
19041,3.7
19044,9.2
19045,15.0
19046,5.6
19049,24.5
19051,31.3
19054,3.8
19055,24.6
19056,9.0
19057,12.8
19058,24.7
19059,10.3
19063,10.8
19064,21.2
19066,22.3
19068,11.2
19070,12.5
19071,19.7
19072,13.6
19074,9.2
19076,-4.7
19077,23.5
19081,8.0
19083,20.8
19084,3.4
19085,15.9
19088,41.6
19090,21.9
19091,9.6
19099,16.1
19101,15.9
19103,26.4
19107,6.9
19109,2.3
19113,15.9
19114,27.2
19116,15.2
19117,14.8
19119,25.5
19122,19.9
19123,7.6
19125,15.9
19126,8.2
19127,18.8
19129,13.1
19130,22.7
19133,24.5
19134,10.7
19135,27.4
19137,-15.0
19138,6.0
19141,5.5
19142,14.6
19146,9.0
19147,19.3
19148,10.9
19150,28.8
19151,20.3
19152,18.1
19155,14.0
19158,4.5
19159,3.2
19162,4.8
19164,10.8
19166,13.2
19167,17.8
19168,24.0
19169,14.6
19170,5.4
19174,18.1
19175,11.1
19176,-4.7
19177,16.9
19178,3.2
19181,24.1
19184,6.0
19186,20.8
19188,41.6
19190,11.2
19191,8.2
19195,20.3
19197,27.2
19199,13.7
19200,2.1
19201,18.5
19203,9.0
19206,18.8
19208,7.1
19209,14.4
19211,10.9
19213,13.3
19217,6.2
19224,25.6
19225,15.9
19229,10.9
19233,27.1
19234,18.4
19235,11.7
19236,10.4
19237,5.2
19238,-22.7
19239,13.2
19242,7.5
19243,17.7
19246,13.5
19248,9.3
19249,6.3
19250,2.5
19251,22.5
19252,23.6
19254,10.7
19255,26.3
19258,9.9
19259,24.3
19261,27.9
19264,-2.1
19265,27.0
19267,25.8
19268,9.8
19270,23.1
19272,23.5
19275,17.2
19276,-15.0
19279,6.1
19281,5.4
19286,17.6
19288,15.4
19290,31.3
19291,16.2
19293,20.0
19294,6.6
19296,19.0
19297,26.8
19298,27.2
19302,25.8
19303,10.8
19306,20.9
19308,8.1
19310,26.0
19312,13.3
19313,22.5
19314,14.5
19315,-7.2
19319,24.9
19321,8.7
19324,7.0
19328,41.6
19329,9.9
19331,18.4
19334,10.9
19336,9.9
19339,25.3
19340,21.0
19341,15.5
19345,6.3
19346,27.3
19349,11.8
19350,14.4
19351,10.8
19352,13.3
19353,12.6
19355,20.5
19356,10.0
19360,25.3
19361,24.5
19362,18.8
19364,23.7
19365,15.9
19366,17.9
19369,16.9
19376,21.8
19377,7.9
19378,-22.7
19380,26.1
19385,18.8
19387,18.7
19391,21.0
19392,5.3
19393,14.2
19399,24.5
19403,3.0
19404,27.0
19409,18.3
19413,20.7
19415,-7.2
19418,16.8
19420,2.2
19421,3.7
19423,20.2
19428,41.6
19429,14.6
19431,14.4
19433,5.3
19434,24.9
19435,12.5
19436,20.1
19439,27.2
19440,21.0
19445,23.7
19446,5.3
19447,8.8
19449,6.0
19452,10.8
19454,2.9
19455,12.7
19460,17.6
19461,3.4
19462,21.8
19464,20.7
19465,21.0
19471,9.0
19475,23.6
19477,-17.5
19479,27.3
19485,25.7
19486,19.6
19488,5.9
19490,21.0
19492,8.3
19494,26.5
19495,5.0
19496,14.0
19497,23.3
19504,-2.1
19506,12.3
19508,25.7
19512,8.7
19514,27.0
19515,10.5
19516,-15.0
19522,16.9
19523,22.5
19525,24.8
19527,18.5
19529,28.8
19531,15.6
19536,5.3
19540,17.9
19542,10.8
19543,7.8
19545,27.5
19546,17.9
19547,27.6
19549,9.1
19550,22.8
19552,6.3
19554,-4.7
19555,17.0
19556,18.6
19558,23.7
19565,27.0
19567,41.6
19568,18.8
19570,10.4
19571,12.8
19572,12.8
19579,21.0
19580,20.0
19582,22.5
19584,22.7
19585,4.1
19586,11.2
19587,24.4
19589,2.5
19591,6.4
19592,8.2
19593,13.2
19596,25.7
19600,21.3
19601,14.1
19602,22.3
19603,0.5
19605,12.5
19607,2.3
19609,20.7
19610,5.7
19612,16.6
19614,-9.8
19615,16.9
19616,20.3
19618,18.5
19621,13.2
19623,23.9
19624,12.6
19625,24.5
19626,18.8
19628,39.1
19630,9.8
19631,13.7
19633,14.7
19634,23.9
19635,20.3
19638,10.3
19639,19.1
19640,18.5
19643,3.4
19644,25.9
19645,6.6
19651,8.5
19652,8.2
19654,12.4
19656,14.8
19658,5.7
19660,20.3
19663,5.6
19664,3.6
19665,13.3
19669,26.7
19671,23.1
19673,9.0
19674,16.8
19675,-12.4
19676,18.2
19677,10.0
19680,8.0
19681,16.9
19682,17.3
19684,9.2
19688,31.3
19690,24.2
19691,21.2
19692,19.5
19693,24.5
19694,22.6
19696,19.9
19697,6.5
19701,10.8
19702,14.2
19705,20.0
19706,10.7
19709,7.2
19710,23.5
19711,23.5
19713,4.6
19714,-4.7
19715,7.8
19717,2.5
19718,14.5
19720,9.2
19721,8.5
19723,25.4
19725,19.7
19726,39.1
19728,3.3
19731,27.6
19733,13.0
19734,4.6
19735,6.6
19738,21.0
19739,9.6
19740,14.4
19741,8.6
19742,18.5
19743,16.0
19744,7.0
19745,23.3
19746,6.1
19749,8.3
19750,13.3
19752,11.0
19753,10.4
19755,3.9
19756,3.3
19758,8.5
19764,13.3
19767,5.4
19771,4.5
19774,2.7
19775,20.4
19776,-22.7
19779,11.5
19780,11.3
19781,15.9
19786,15.0
19788,22.9
19789,23.6
19790,26.9
19791,8.9
19792,27.9
19794,3.4
19796,5.9
19798,25.3
19799,23.3
19801,19.6
19802,0.5
19803,26.6
19806,12.2
19809,3.9
19811,17.4
19812,6.1
19813,-7.2
19814,23.1
19816,24.3
19818,5.4
19819,8.0
19820,22.8
19822,2.9
19824,14.6
19825,39.1
19829,15.4
19830,17.2
19832,24.0
19833,23.4
19837,21.1
19838,18.5
19842,25.0
19844,25.5
19845,11.1
19846,21.3
19848,21.0
19851,10.8
19853,10.1
19860,27.0
19861,26.2
19863,21.0
19865,27.3
19867,18.0
19868,24.7
19870,4.9
19872,20.0
19874,24.3
19875,-20.1
19876,10.2
19877,14.9
19878,5.2
19880,26.2
19882,13.2
19883,8.0
19885,26.9
19888,18.4
19889,21.0
19902,0.5
19903,5.4
19904,9.2
19907,8.4
19909,23.8
19910,13.2
19913,-7.2
19915,21.4
19916,5.5
19917,24.2
19918,19.5
19919,24.7
19921,19.1
19923,25.2
19924,20.6
19926,41.6
19927,8.2
19930,5.4
19931,24.7
19932,2.0
19934,13.3
19935,3.9
19937,3.1
19938,21.0
19940,6.0
19942,10.2
19943,16.6
19944,12.0
19947,23.0
19948,19.4
19950,10.8
19951,12.9
19953,13.6
19956,24.8
19958,10.0
19960,19.8
19961,20.0
19962,13.0
19963,23.6
19964,25.7
19965,15.1
19966,21.4
19967,17.4
19968,4.8
19969,4.0
19971,9.4
19975,21.6
19976,-12.4
19982,21.1
19986,24.1
19988,21.0
19989,18.5
19990,17.6
19991,14.6
19992,15.3
19994,15.0
19995,4.6
19997,17.4
19999,3.0
20001,-2.1
20004,22.8
20005,25.3
20006,19.1
20007,12.0
20009,8.3
20010,15.6
20014,-17.5
20015,12.6
20017,15.2
20019,20.4
20021,21.1
20027,4.3
20028,28.8
20029,23.2
20030,11.2
20031,12.9
20035,17.5
20036,27.8
20039,18.3
20040,8.2
20041,19.2
20042,11.9
20044,27.8
20046,21.7
20048,15.9
20050,6.2
20051,0.5
20053,14.4
20054,15.6
20056,2.3
20058,26.7
20063,31.3
20067,20.6
20068,6.1
20073,2.0
20075,-4.7
20077,18.6
20079,16.4
20080,19.5
20082,26.5
20083,9.5
20086,6.0
20087,23.6
20088,7.0
20090,7.5
20092,12.9
20093,2.5
20094,15.4
20095,20.9
20098,20.5
20101,5.6
20102,2.7
20106,15.9
20107,3.3
20108,12.4
20111,13.5
20112,-4.7
20113,25.0
20114,21.8
20116,17.2
20117,27.7
20118,11.7
20122,18.7
20124,41.6
20127,11.0
20128,9.4
20129,16.3
20135,12.7
20136,18.5
20138,25.2
20140,8.8
20146,14.5
20149,13.3
20150,16.7
20156,26.5
20160,11.9
20162,10.8
20163,15.4
20165,12.9
20168,11.7
20169,24.6
20172,10.8
20174,-22.7
20176,14.8
20177,4.6
20180,13.0
20184,11.2
20185,3.2
20188,21.0
20191,19.4
20194,22.7
20195,23.3
20196,7.4
20197,9.9
20199,26.1
20200,3.0
20201,4.3
20204,3.3
20210,18.3
20211,-4.7
20215,13.4
20219,17.3
20222,5.8
20224,39.1
20225,20.7
20226,5.5
20227,15.8
20230,27.0
20231,13.1
20232,21.7
20233,7.6
20237,18.5
20238,22.0
20240,20.3
20244,14.5
20245,8.3
20248,19.6
20249,10.8
20251,4.6
20254,14.9
20257,16.5
20259,4.8
20261,15.9
20262,22.4
20263,23.8
20266,4.8
20268,9.4
20269,14.5
20270,6.0
20271,24.2
20274,-22.7
20275,5.7
20276,19.3
20277,5.6
20279,11.7
20280,23.3
20282,10.8
20283,2.6
20285,3.5
20286,10.9
20287,21.0
20289,17.3
20291,2.8
20292,27.8
20296,20.7
20298,19.3
20299,17.2
20300,0.5
20302,16.3
20303,7.4
20304,24.0
20307,12.4
20310,13.9
20312,-7.2
20313,15.5
20314,14.4
20315,10.1
20317,4.5
20321,7.6
20322,7.3
20324,41.6
20325,22.6
20326,9.3
20327,15.7
20329,22.1
20332,3.5
20334,2.8
20335,4.1
20336,18.5
20337,7.8
20338,6.1
20339,10.0
20341,26.4
20345,27.6
20347,14.8
20348,10.8
20349,27.3
20355,9.2
20357,13.4
20360,16.8
20361,27.0
20362,23.6
20364,12.7
20366,27.7
20367,12.7
20369,12.1
20370,15.3
20373,14.9
20374,-15.0
20378,7.1
20380,4.6
20381,17.7
20383,11.8
20384,5.8
20385,6.0
20387,18.5
20388,22.2
20389,18.4
20392,3.4
20394,6.3
20397,8.5
20399,5.4
20400,0.5
20401,25.3
20402,9.5
20403,11.7
20404,21.3
20408,13.7
20409,24.0
20410,26.8
20411,-9.8
20412,6.8
20418,4.0
20419,11.6
20420,16.7
20422,3.1
20423,39.1
20424,8.8
20426,26.0
20427,24.1
20428,6.3
20429,24.4
20430,24.9
20434,2.3
20435,3.8
20436,18.5
20437,12.5
20440,3.1
20442,16.1
20443,5.0
20447,6.7
20449,8.2
20450,17.1
20452,14.7
20454,16.4
20457,22.1
20458,14.6
20460,-2.1
20461,18.0
20466,17.2
20467,11.9
20471,7.0
20472,-17.5
20477,4.2
20478,5.7
20479,12.2
20481,10.4
20484,16.3
20485,23.1
20486,23.6
20490,24.3
20491,9.9
20496,6.0
20499,3.0
20503,5.8
20504,22.8
20510,-4.7
20511,8.7
20516,16.4
20520,8.5
20521,16.1
20523,41.6
20527,12.2
20528,20.8
20529,8.4
20530,14.0
20531,14.0
20533,9.8
20535,15.9
20537,3.1
20539,26.5
20540,23.8
20541,24.7
20543,25.7
20545,2.8
20546,6.0
20547,15.9
20548,19.7
20550,18.4
20551,23.1
20554,25.9
20555,22.5
20556,17.7
20557,8.5
20558,16.9
20559,2.2
20560,8.2
20562,4.2
20564,8.9
20568,26.2
20570,22.5
20572,-15.0
20573,24.7
20574,16.8
20580,21.4
20581,23.6
20582,23.2
20584,22.9
20585,31.3
20587,18.0
20588,21.1
20589,24.0
20593,11.8
20594,19.1
20597,10.8
20598,17.6
20600,25.1
20607,20.9
20610,-7.2
20612,12.6
20613,16.4
20615,22.2
20616,9.5
20619,27.2
20622,41.6
20624,7.7
20625,4.0
20627,4.4
20628,21.6
20629,15.4
20632,4.9
20635,18.5
20636,24.3
20637,24.2
20638,18.5
20640,10.1
20641,26.7
20643,10.9
20646,4.2
20647,10.8
20649,20.3
20654,6.1
20656,18.5
20657,13.6
20658,17.3
20660,15.9
20663,2.1
20665,10.1
20666,3.0
20668,11.4
20669,2.0
20671,21.4
20672,-22.7
20673,22.6
20681,23.0
20682,25.5
20683,13.8
20684,9.7
20685,21.0
20686,23.3
20687,13.9
20688,7.5
20693,2.6
20694,4.7
20695,23.0
20696,11.2
20698,25.7
20699,0.5
20706,9.1
20708,14.3
20710,-7.2
20711,26.6
20715,6.0
20717,10.5
20718,27.4
20720,17.6
20721,22.6
20722,41.6
20724,13.8
20725,9.0
20728,7.8
20729,24.3
20730,26.4
20732,8.9
20733,18.1
20734,18.5
20735,17.1
20736,25.9
20738,15.7
20742,2.1
20743,26.5
20746,8.4
20747,13.3
20752,4.8
20755,7.9
20756,21.4
20757,28.0
20759,9.5
20760,21.0
20762,6.8
20763,18.4
20765,27.1
20766,3.8
20769,23.7
20770,2.4
20771,6.4
20772,-17.5
20774,21.7
20775,13.7
20778,8.1
20783,3.7
20785,18.8
20786,21.0
20790,3.2
20794,14.7
20795,26.6
20796,8.3
20798,-2.1
20802,19.8
20807,2.9
20809,2.7
20810,-15.0
20813,15.9
20814,12.6
20816,10.6
20818,12.6
20821,4.5
20822,10.4
20823,12.3
20824,28.8
20825,12.1
20828,9.5
20829,3.6
20831,13.5
20835,26.7
20836,12.4
20837,8.2
20838,17.6
20839,24.8
20840,11.8
20841,18.5
20842,17.2
20843,15.5
20847,9.1
20848,3.0
20849,8.6
20851,3.8
20852,2.3
20853,18.9
20854,12.5
20856,4.8
20857,27.7
20858,26.0
20859,26.2
20860,13.9
20865,14.2
20868,21.6
20869,13.6
20870,26.7
20871,21.9
20872,-9.8
20873,7.8
20875,14.5
20876,16.9
20878,10.1
20879,7.1
20882,7.3
20883,27.7
20884,26.2
20885,3.0
20886,15.7
20888,4.9
20889,25.0
20894,13.5
20896,16.9
20897,5.6
20900,21.7
20901,23.6
20906,27.8
20909,-2.1
20910,9.2
20911,2.6
20913,26.0
20914,9.0
20916,9.6
20921,41.6
20923,26.6
20930,23.1
20932,10.7
20933,18.5
20934,17.4
20941,13.6
20942,7.9
20943,8.1
20945,15.9
20947,19.2
20948,9.9
20949,16.7
20953,12.6
20955,20.2
20957,10.9
20958,26.4
20959,5.6
20967,7.9
20969,27.6
20970,-12.4
20972,14.5
20973,19.7
20974,23.3
20981,20.9
20983,31.3
20984,11.4
20985,25.6
20989,24.8
20992,21.7
20993,10.1
20996,10.8
20998,20.1
20999,17.2
21000,6.7
21001,18.3
21004,27.5
21006,7.6
21007,12.0
21008,-4.7
21012,4.9
21017,21.2
21019,14.4
21020,41.6
21022,23.6
21023,8.1
21024,27.9
21025,7.6
21027,16.8
21028,9.9
21029,13.1
21030,25.7
21033,18.5
21034,9.1
21035,14.9
21036,20.8
21039,26.2
21041,7.1
21046,10.8
21050,21.4
21051,16.6
21053,11.1
21054,15.7
21056,24.3
21057,27.2
21058,13.3
21060,8.3
21063,18.2
21065,24.5
21066,19.1
21067,12.1
21069,13.8
21070,-22.7
21071,4.4
21074,20.2
21077,27.8
21078,26.9
21079,9.1
21080,7.2
21082,5.2
21083,21.9
21084,23.6
21085,25.9
21086,12.2
21089,26.4
21095,13.2
21096,11.5
21097,3.0
21103,16.5
21105,4.6
21106,24.7
21108,-7.2
21111,23.4
21116,14.0
21117,5.3
21118,24.9
21121,39.1
21123,5.2
21126,5.5
21129,2.6
21130,20.1
21131,17.3
21132,17.9
21133,18.5
21134,26.3
21136,11.6
21138,8.8
21139,9.9
21140,7.4
21141,17.4
21145,10.8
21146,20.0
21148,13.6
21149,4.6
21151,9.7
21154,27.4
21158,18.5
21159,18.8
21163,11.4
21164,2.1
21167,24.7
21168,17.6
21170,8.2
21171,-22.7
21172,19.2
21176,14.4
21177,23.8
21180,4.6
21181,16.1
21183,12.3
21184,21.0
21185,26.8
21186,17.2
21188,5.9
21189,10.4
21193,17.7
21194,24.2
21196,0.5
21197,3.4
21200,2.6
21208,-7.2
21211,26.0
21216,12.1
21219,3.4
21220,41.6
21224,3.2
21226,4.1
21227,26.9
21233,21.0
21235,23.3
21238,19.3
21240,21.5
21244,4.2
21245,10.8
21248,10.5
21251,3.9
21252,3.8
21255,17.2
21258,23.6
21260,7.0
21261,8.7
21262,8.6
21264,22.1
21265,18.2
21267,15.4
21270,-15.0
21273,5.6
21275,4.3
21282,8.0
21283,21.0
21285,3.2
21294,21.2
21297,-2.1
21303,15.3
21304,19.0
21305,7.0
21308,24.2
21309,-17.5
21310,19.3
21311,11.8
21312,16.9
21313,3.3
21318,19.7
21321,26.7
21322,28.8
21324,25.7
21325,23.3
21326,24.2
21328,14.4
21330,7.1
21335,8.2
21343,26.2
21345,3.9
21346,0.5
21349,8.9
21350,8.8
21353,5.2
21355,19.6
21358,28.8
21361,26.5
21364,14.1
21365,18.3
21367,18.3
21370,-4.7
21375,12.7
21376,25.4
21377,11.4
21379,10.2
21382,12.9
21383,23.6
21385,17.8
21387,5.3
21390,3.9
21391,27.8
21392,16.2
21394,24.8
21395,3.0
21398,2.5
21402,7.5
21405,4.1
21406,-4.7
21408,20.9
21410,12.3
21411,9.5
21412,14.5
21413,3.6
21416,18.4
21419,41.6
21428,27.3
21429,7.8
21430,2.8
21431,6.9
21432,18.5
21434,8.8
21435,5.0
21437,18.3
21439,17.8
21440,13.0
21442,6.9
21443,25.7
21444,13.3
21447,17.8
21450,3.7
21451,24.0
21455,13.3
21456,10.8
21457,2.4
21459,8.3
21460,7.9
21462,17.0
21463,3.8
21465,16.9
21466,7.9
21467,6.7
21468,10.9
21469,-22.7
21473,22.5
21475,15.9
21476,25.0
21479,18.5
21481,12.5
21482,23.6
21484,13.8
21486,4.6
21487,11.9
21488,17.7
21490,14.0
21491,8.8
21492,24.0
21493,16.8
21495,3.0
21497,24.0
21498,6.3
21501,6.8
21505,6.8
21506,18.0
21507,-4.7
21508,21.8
21509,8.7
21510,19.8
21511,9.2
21513,27.0
21514,22.8
21515,21.4
21516,13.2
21517,20.3
21518,16.1
21519,41.6
21520,15.2
21522,24.7
21523,25.0
21525,3.9
21527,22.4
21528,7.8
21529,3.2
21531,18.5
21535,8.7
21537,17.7
21539,15.5
21543,13.3
21544,10.3
21547,15.0
21556,18.5
21558,4.2
21559,10.7
21562,20.3
21563,17.4
21565,19.2
21569,-22.7
21570,20.1
21571,22.0
21573,25.7
21574,20.2
21575,6.3
21576,14.5
21579,14.5
21580,17.9
21582,21.0
21585,6.5
21587,11.3
21590,4.5
21591,6.0
21594,20.5
21595,0.5
21598,8.9
21599,12.1
21603,8.1
21605,6.4
21606,-7.2
21607,12.7
21610,25.0
21611,27.1
21614,12.3
21617,2.6
21618,41.6
21620,5.8
21625,10.4
21627,9.7
21631,15.9
21632,18.5
21633,2.2
21635,18.2
21636,11.0
21638,18.1
21640,16.8
21642,14.7
21643,22.0
21644,10.8
21645,20.8
21647,27.2
21650,22.7
21652,7.1
21654,23.6
21655,27.4
21656,23.6
21657,24.2
21658,10.2
21659,11.0
21660,16.7
21664,18.7
21668,-17.5
21673,5.8
21675,20.7
21676,9.0
21681,4.2
21682,21.0
21683,3.7
21686,19.6
21687,27.7
21688,27.0
21690,13.9
21692,7.7
21693,15.7
21694,5.9
21695,-2.1
21696,11.2
21698,26.9
21701,14.0
21702,13.2
21703,4.7
21704,11.5
21707,-15.0
21711,16.4
21712,21.0
21715,6.2
21720,7.4
21721,28.8
21722,22.7
21724,16.1
21725,11.4
21726,26.9
21731,2.8
21732,26.6
21733,8.2
21734,20.2
21737,17.0
21739,6.3
21742,8.6
21744,0.5
21745,18.6
21748,5.6
21751,14.1
21753,27.0
21754,23.8
21755,28.8
21759,6.5
21760,4.9
21763,25.1
21767,19.8
21769,-7.2
21770,15.6
21772,7.3
21773,6.5
21775,13.5
21776,20.6
21778,27.5
21779,21.8
21781,23.6
21782,9.6
21783,11.1
21784,6.8
21785,14.3
21787,2.2
21788,18.0
21793,3.0
21795,24.0
21799,16.3
21802,5.6
21804,14.2
21805,-2.1
21807,23.6
21817,41.6
21818,3.8
21819,19.7
21822,6.2
21823,17.9
21824,13.2
21825,25.1
21826,18.4
21827,10.5
21828,6.1
21829,21.0
21830,15.9
21832,10.5
21833,10.6
21835,19.8
21837,2.5
21838,26.9
21840,25.0
21842,15.9
21844,2.8
21845,5.0
21846,9.9
21849,16.0
21850,8.7
21855,5.6
21856,5.4
21859,13.2
21861,6.5
21862,19.9
21863,2.3
21866,-12.4
21869,12.9
21873,27.9
21877,5.5
21879,31.3
21883,8.3
21884,3.0
21886,21.4
21889,15.8
21890,2.1
21891,25.5
21893,10.8
21897,19.4
21898,19.8
21902,24.8
21903,18.6
21905,-2.1
21909,7.1
21910,13.9
21911,23.0
21912,16.9
21914,27.5
21917,39.1
21921,22.0
21924,5.7
21926,26.9
21929,18.5
21930,2.8
21936,17.8
21938,24.7
21940,20.4
21941,7.7
21942,13.3
21946,13.0
21950,25.4
21953,13.1
21954,13.3
21956,12.0
21957,16.5
21961,20.9
21965,9.9
21966,8.5
21967,-22.7
21968,24.3
21969,8.6
21972,9.2
21978,8.6
21979,26.5
21981,23.6
21982,12.1
21985,13.3
21987,8.9
21988,14.1
21990,2.8
21993,0.5
21995,16.2
21996,9.5
21999,21.1
22001,16.4
22003,4.6
22004,-4.7
22007,21.0
22016,4.5
22017,41.6
22020,12.6
22021,5.7
22023,26.6
22028,23.6
22029,6.4
22030,15.9
22031,2.1
22033,5.4
22034,4.5
22036,11.3
22040,10.3
22041,2.5
22042,10.8
22045,17.9
22048,23.0
22050,18.0
22054,21.0
22055,27.4
22062,12.8
22064,21.0
22065,22.1
22066,5.2
22067,-17.5
22069,23.7
22070,20.4
22071,11.7
22073,20.2
22074,20.1
22076,5.5
22080,18.5
22081,22.6
22083,16.4
22084,3.2
22085,15.1
22086,16.3
22087,27.6
22089,18.8
22091,18.5
22093,0.5
22094,8.1
22098,26.0
22099,21.2
22100,26.8
22101,24.1
22102,10.0
22105,-7.2
22107,27.9
22109,6.5
22112,10.8
22117,41.6
22121,24.6
22124,7.2
22125,11.5
22127,22.1
22129,18.5
22131,4.3
22133,25.8
22134,22.2
22135,23.2
22139,10.3
22141,10.8
22144,19.8
22147,23.7
22154,23.6
22155,14.0
22156,20.3
22157,16.4
22158,6.6
22159,3.0
22161,4.1
22167,-12.4
22169,13.6
22170,15.8
22171,2.5
22172,8.2
22174,8.6
22176,27.1
22177,22.9
22180,18.5
22182,15.9
22185,22.7
22186,2.2
22188,21.7
22189,14.2
22192,23.8
22193,-2.1
22194,13.2
22199,22.8
22200,24.1
22204,10.0
22205,-15.0
22210,25.4
22212,6.6
22213,27.8
22215,7.7
22217,26.9
22218,31.3
22219,10.5
22222,20.0
22223,9.7
22226,21.0
22228,17.5
22230,6.7
22231,10.5
22232,8.2
22234,22.6
22235,16.7
22236,13.5
22241,13.6
22243,0.5
22244,17.6
22245,27.5
22248,4.3
22249,19.7
22250,22.4
22254,28.8
22256,27.7
22259,22.7
22260,7.8
22263,20.4
22264,21.7
22266,-4.7
22268,14.2
22270,27.3
22274,13.5
22276,8.5
22279,26.2
22281,21.9
22284,19.8
22286,4.3
22288,12.1
22289,16.3
22291,27.5
22292,3.0
22293,24.1
22294,27.2
22303,-2.1
22305,16.8
22306,25.7
22308,3.0
22310,21.7
22311,24.8
22312,19.1
22316,41.6
22319,27.1
22320,6.7
22321,22.2
22322,7.2
22323,20.4
22325,17.5
22328,15.9
22329,11.8
22331,2.2
22332,15.4
22335,9.1
22336,13.2
22337,21.5
22340,13.3
22342,5.4
22346,15.2
22349,17.0
22352,10.8
22354,15.4
22356,18.1
22357,7.9
22359,19.9
22362,25.9
22365,9.3
22366,-22.7
22367,25.5
22368,21.3
22374,21.4
22376,21.0
22377,16.9
22379,23.6
22381,21.6
22382,14.5
22383,25.0
22384,24.0
22386,5.3
22387,4.7
22388,25.6
22390,10.5
22391,3.0
22394,12.2
22396,3.3
22399,22.4
22400,24.1
22401,7.5
22403,-7.2
22409,19.6
22413,21.5
22414,24.9
22415,41.6
22416,19.6
22421,24.9
22424,5.8
22425,11.5
22427,18.7
22428,18.5
22431,26.5
22433,24.4
22434,15.3
22435,15.3
22438,4.7
22439,22.1
22440,10.8
22441,8.7
22442,8.1
22445,17.0
22446,12.3
22447,8.3
22449,20.5
22450,25.3
22452,2.2
22453,18.5
22454,2.1
22455,8.2
22460,17.3
22462,18.0
22463,27.5
22465,-22.7
22467,24.1
22469,26.5
22470,19.0
22471,9.7
22472,9.2
22473,14.0
22474,25.4
22475,19.1
22478,23.6
22481,24.6
22482,10.1
22485,4.9
22487,27.0
22488,13.7
22491,17.1
22492,0.5
22494,23.5
22498,21.3
22499,5.5
22500,18.6
22503,-7.2
22504,26.1
22505,9.4
22506,8.0
22507,22.0
22508,23.6
22511,27.8
22512,4.8
22515,41.6
22517,12.2
22518,26.4
22519,21.1
22523,8.5
22524,17.1
22525,25.9
22526,7.4
22527,17.9
22528,18.5
22529,10.6
22531,18.3
22532,20.5
22533,16.8
22537,3.4
22539,23.1
22540,13.3
22545,20.3
22547,16.9
22549,13.2
22552,23.6
22553,15.2
22556,10.2
22561,15.2
22563,7.8
22565,-15.0
22566,19.5
22568,10.6
22571,19.3
22572,22.7
22573,3.9
22574,14.4
22575,10.0
22578,23.4
22579,21.0
22582,27.8
22586,19.6
22587,14.7
22591,-2.1
22593,26.8
22595,7.5
22597,27.9
22598,19.0
22601,4.5
22602,19.9
22603,-15.0
22605,14.1
22609,26.9
22610,4.4
22611,26.0
22614,18.6
22617,31.3
22623,7.0
22626,19.1
22627,18.7
22628,2.1
22630,10.8
22634,15.2
22638,7.7
22642,-7.2
22644,17.2
22646,5.9
22649,7.1
22651,20.5
22654,41.6
22658,10.4
22659,2.4
22660,25.5
22661,12.6
22662,17.3
22663,10.8
22665,26.8
22667,18.5
22668,10.7
22669,21.9
22671,20.9
22672,7.8
22676,21.9
22678,27.0
22679,10.8
22681,26.2
22682,19.8
22685,12.2
22686,7.1
22692,21.0
22696,13.9
22697,10.2
22700,19.4
22701,10.6
22703,5.1
22705,-17.5
22707,18.2
22708,6.1
22710,17.5
22717,3.4
22718,21.0
22719,5.6
22725,5.3
22726,9.0
22727,14.7
22728,9.6
22730,-2.1
22732,22.6
22734,10.6
22738,2.9
22740,8.3
22742,11.3
22743,-17.5
22744,11.6
22745,20.1
22748,27.7
22749,3.1
22754,27.5
22755,3.0
22757,31.3
22759,12.7
22760,14.2
22761,3.9
22766,12.9
22767,10.0
22769,8.2
22771,26.4
22773,22.6
22774,16.7
22776,22.8
22778,22.8
22780,3.0
22781,4.9
22785,6.2
22787,16.3
22789,8.5
22791,19.2
22792,26.2
22795,4.4
22798,18.5
22800,14.4
22801,21.0
22804,-9.8
22805,22.4
22808,23.9
22810,10.4
22811,13.4
22814,12.5
22816,26.2
22817,25.6
22818,6.4
22819,5.9
22820,27.4
22823,18.9
22825,19.1
22826,18.4
22827,11.5
22828,9.7
22829,12.9
22830,5.6
22837,20.1
22838,8.5
22840,2.1
22841,-2.1
22842,8.7
22843,11.6
22845,23.1
22849,10.8
22852,10.7
22853,41.6
22856,5.3
22858,12.6
22862,20.3
22865,18.5
22870,13.1
22871,15.0
22876,14.7
22878,13.3
22879,16.0
22881,22.9
22884,10.1
22885,22.6
22889,8.0
22891,3.0
22893,5.6
22894,12.7
22896,27.6
22898,17.0
22900,17.6
22901,8.8
22902,-12.4
22908,23.4
22912,2.9
22914,15.5
22915,20.1
22916,33.9
22917,23.4
22920,12.4
22921,11.8
22922,19.2
22927,23.3
22928,10.8
22929,5.7
22930,27.0
22932,25.1
22933,16.6
22934,6.8
22935,19.8
22937,5.9
22940,-4.7
22941,16.7
22942,11.7
22946,10.8
22948,2.6
22949,4.7
22950,22.1
22951,3.0
22952,41.6
22954,18.7
22955,25.8
22958,2.6
22964,20.8
22966,15.9
22967,26.9
22969,19.6
22970,6.5
22971,3.5
22978,13.3
22980,17.2
22981,7.4
22982,10.0
22985,2.9
22989,13.3
22990,13.3
22994,14.4
22995,6.3
22997,5.0
23000,6.7
23001,3.9
23002,18.9
23003,-22.7
23004,19.8
23005,21.6
23006,23.3
23009,17.3
23016,23.6
23018,18.5
23019,23.8
23022,21.3
23026,6.1
23027,25.9
23029,0.5
23030,22.4
23031,17.8
23032,4.9
23033,24.1
23034,7.8
23035,14.5
23036,6.2
23037,25.9
23041,-4.7
23046,3.1
23047,3.4
23049,16.5
23050,25.0
23052,15.3
23053,39.1
23055,19.0
23056,13.6
23063,9.3
23065,15.9
23066,13.8
23067,3.4
23068,9.4
23069,16.6
23074,14.8
23076,16.1
23077,10.8
23079,25.1
23083,22.5
23084,25.2
23087,26.3
23088,3.6
23090,7.0
23091,18.5
23092,6.1
23093,19.2
23096,23.6
23097,21.4
23099,2.7
23103,-22.7
23104,4.1
23105,27.9
23106,13.0
23108,17.0
23110,3.4
23113,9.6
23115,12.8
23116,21.0
23119,12.9
23120,15.1
23122,10.4
23123,21.3
23124,9.0
23128,12.6
23129,0.5
23132,24.0
23133,12.8
23134,20.0
23136,2.5
23137,13.1
23140,-7.2
23144,23.6
23145,8.9
23146,6.0
23147,18.3
23150,25.8
23151,28.0
23152,39.1
23153,6.6
23155,14.0
23157,13.8
23159,14.1
23161,8.5
23162,14.9
23164,25.6
23165,21.0
23166,8.8
23170,13.5
23171,23.1
23174,20.2
23175,9.1
23176,10.3
23177,14.2
23178,10.8
23179,22.2
23180,3.4
23181,13.3
23184,5.7
23185,18.0
23187,15.0
23190,23.6
23192,13.8
23195,26.0
23196,16.2
23198,6.0
23199,15.6
23202,-12.4
23203,22.7
23205,5.5
23208,22.7
23209,5.8
23214,12.4
23215,20.7
23216,18.5
23219,20.4
23221,21.7
23222,8.7
23224,13.4
23225,2.0
23228,7.1
23229,-2.1
23230,14.8
23231,18.8
23234,26.5
23236,2.9
23240,12.1
23241,-17.5
23242,20.6
23243,16.1
23244,2.3
23247,7.2
23249,19.9
23250,27.1
23253,12.4
23254,9.9
23255,28.8
23258,14.3
23259,24.6
23266,23.8
23267,8.2
23268,18.5
23269,5.8
23275,17.1
23276,7.0
23277,5.2
23278,0.5
23279,6.5
23282,21.8
23283,8.8
23285,16.5
23288,11.4
23289,27.6
23290,28.8
23291,19.5
23292,9.0
23293,23.8
23296,22.6
23298,4.2
23301,17.7
23303,-7.2
23304,27.4
23306,16.5
23309,8.8
23310,2.5
23312,13.4
23315,26.2
23316,26.2
23323,5.1
23324,2.0
23327,3.0
23331,15.4
23334,20.8
23335,12.4
23337,24.7
23338,4.7
23339,-4.7
23344,6.4
23345,14.5
23347,18.9
23351,39.1
23352,20.8
23355,3.4
23356,23.5
23359,3.5
23360,7.9
23364,18.5
23365,13.0
23368,16.2
23372,11.7
23373,13.5
23376,13.3
23379,11.9
23382,20.2
23384,18.9
23385,9.6
23388,4.2
23389,8.2
23390,3.4
23391,27.3
23392,4.4
23397,26.1
23399,16.8
23400,-12.4
23402,2.0
23406,19.6
