0,28.8
1,24.0
2,10.8
4,14.3
5,-7.2
6,23.9
7,-22.7
9,27.7
10,5.6
11,19.0
12,8.2
14,-9.8
17,36.5
19,25.9
20,21.3
21,13.6
24,-4.7
25,27.9
26,7.2
27,16.4
31,12.2
32,18.2
33,-2.1
36,20.0
37,31.6
40,13.3
41,9.7
42,11.2
43,3.0
46,16.1
48,22.1
50,25.9
51,10.8
54,25.1
56,29.6
58,20.4
59,21.2
61,18.5
62,16.4
68,21.8
69,7.3
70,13.3
76,21.5
78,15.7
79,26.2
80,32.7
82,12.1
84,25.9
86,20.2
89,0.5
91,14.9
94,3.6
95,3.1
97,36.5
98,26.5
100,16.7
106,-22.7
107,23.6
109,17.9
112,19.8
113,23.6
117,33.9
121,28.5
122,11.5
123,11.3
129,-7.2
130,31.6
131,8.8
133,21.2
137,18.1
139,28.8
147,12.1
148,15.3
149,8.2
150,10.3
156,28.2
158,31.3
159,18.6
161,21.9
163,9.2
164,25.0
165,19.1
166,19.0
168,8.2
170,32.9
171,11.8
178,33.9
185,20.5
187,3.8
188,5.6
194,11.7
198,33.9
202,3.3
203,21.1
206,22.9
208,3.0
211,18.4
212,14.8
213,3.3
214,31.9
215,6.5
217,29.6
218,33.9
225,3.9
226,15.0
227,31.8
228,-2.1
230,4.2
231,15.0
232,19.6
233,30.1
235,3.5
236,19.3
237,11.1
238,28.8
240,28.0
242,13.8
243,6.1
245,9.6
247,19.7
248,10.8
250,19.2
252,19.7
256,29.2
257,27.1
259,12.9
260,23.6
262,12.2
264,27.4
265,19.5
268,21.6
270,13.3
273,25.1
274,10.9
276,28.6
277,32.8
280,18.5
285,19.6
286,15.5
290,13.3
295,29.0
296,3.4
297,30.8
298,16.4
299,14.1
300,3.4
301,13.3
306,3.0
307,4.4
309,13.3
310,14.7
311,5.6
314,23.4
315,6.1
317,29.7
318,26.4
319,13.7
320,13.3
322,9.1
323,30.3
330,31.5
331,8.2
339,14.6
340,15.9
342,5.9
345,10.8
346,20.0
349,27.8
351,8.2
352,32.4
358,22.9
360,15.9
364,29.9
366,11.8
367,16.5
368,4.6
369,25.8
370,10.8
372,30.4
373,30.4
375,22.6
376,18.9
377,7.9
378,29.3
380,8.2
382,27.1
383,3.9
384,21.9
385,9.1
386,14.2
388,23.6
389,4.4
390,10.8
392,11.1
394,11.9
396,31.5
397,10.6
401,10.8
405,21.0
409,31.1
410,14.8
411,5.6
413,11.2
415,13.3
417,15.7
419,30.1
420,10.8
422,15.0
425,30.5
429,7.9
431,3.0
433,31.2
434,14.3
436,26.6
440,13.3
441,6.8
447,12.7
450,5.6
452,13.3
453,20.9
460,13.3
462,29.2
463,7.1
466,31.0
469,26.0
470,8.5
471,8.2
472,28.7
474,6.7
476,3.2
479,10.1
480,13.3
481,31.0
482,22.4
485,11.8
486,26.8
487,10.8
488,12.2
489,30.0
490,8.2
492,12.1
496,11.7
499,13.3
500,26.6
501,14.2
504,9.7
508,16.1
509,8.2
510,8.1
513,28.4
514,27.5
515,19.0
516,12.4
519,15.9
522,17.7
523,5.5
525,7.1
526,13.0
527,13.4
530,10.8
531,6.0
533,24.0
535,28.9
537,20.9
540,10.8
541,3.1
542,10.5
547,6.8
548,8.5
549,5.7
550,5.6
558,29.1
560,10.8
561,30.9
562,26.4
566,10.1
569,26.4
570,5.6
574,7.3
576,32.1
579,13.3
580,17.8
581,15.8
582,11.1
585,22.3
587,24.9
590,5.6
592,21.5
594,19.7
595,24.4
596,12.6
597,12.7
598,8.4
600,13.3
602,23.1
603,8.1
604,28.3
610,8.2
613,7.2
614,28.8
617,6.0
619,15.9
620,6.5
621,18.1
622,17.7
623,21.4
624,16.5
625,4.6
628,30.5
629,8.2
630,18.9
632,22.1
638,15.9
639,13.9
643,21.0
644,10.7
645,16.6
647,11.1
649,8.2
652,9.9
653,14.0
655,9.4
657,26.2
659,15.9
665,11.9
668,29.2
669,10.8
671,25.0
672,28.6
673,11.9
674,28.0
676,28.3
678,6.6
679,10.8
681,20.4
682,24.1
683,32.4
684,16.8
685,10.8
688,28.4
690,5.6
691,21.1
695,4.1
698,9.9
699,10.8
700,18.3
704,3.9
705,8.9
706,18.9
708,15.6
709,5.6
710,29.2
711,5.1
712,9.0
715,27.8
716,18.6
718,13.3
722,21.0
724,8.5
725,31.1
727,18.4
729,18.2
730,5.6
731,29.7
732,27.4
738,19.7
739,13.3
745,13.6
746,8.2
749,5.6
752,19.3
754,8.9
755,11.6
756,19.6
758,13.3
759,8.5
764,23.5
765,12.4
766,6.7
767,23.7
769,8.2
770,15.3
775,28.0
776,9.4
777,12.8
778,15.9
779,9.8
780,27.4
782,26.5
784,4.5
785,18.4
786,28.9
788,8.2
789,13.7
791,23.6
792,8.6
798,18.5
799,11.4
801,14.4
802,5.6
806,17.4
808,10.8
810,25.3
811,31.0
812,20.8
813,14.9
818,31.0
819,13.3
822,32.6
823,9.7
829,8.2
830,27.4
833,7.1
836,21.1
838,15.9
840,10.7
841,14.3
843,26.8
846,10.9
847,30.2
848,8.2
851,4.6
852,20.6
853,20.6
855,3.9
858,4.1
859,15.9
860,4.4
863,20.9
865,13.2
867,9.8
869,13.3
870,3.5
871,30.2
873,28.0
877,23.5
879,8.2
880,13.2
881,5.9
885,5.5
888,13.3
889,20.8
893,22.9
894,11.7
895,11.6
896,22.5
897,14.7
899,13.3
900,25.1
902,18.4
905,18.5
907,21.6
909,5.6
911,31.2
912,28.2
915,21.5
918,13.3
922,16.7
923,14.1
925,8.1
928,30.3
929,8.2
930,14.1
934,26.3
935,17.7
936,22.1
937,20.1
939,13.3
942,25.6
946,6.8
948,18.5
949,10.8
951,6.3
953,20.8
956,8.4
959,8.2
960,5.1
962,25.4
963,16.9
968,10.8
969,19.2
971,22.8
973,22.9
975,21.9
978,10.8
982,5.2
983,7.1
986,18.9
989,8.6
990,5.6
992,21.3
994,28.8
998,30.0
999,10.8
1000,16.9
1001,30.8
1002,25.5
1003,18.9
1004,30.5
1007,10.9
1008,12.9
1009,5.6
1010,6.0
1011,11.0
1017,30.8
1018,15.8
1019,5.6
1021,25.8
1023,7.8
1025,32.8
1026,32.5
1027,6.1
1030,0.5
1032,8.5
1033,9.5
1035,3.9
1037,18.8
1038,13.3
1039,16.0
1040,-2.1
1041,19.1
1042,26.3
1043,20.3
1049,21.3
1051,31.3
1052,32.6
1053,28.0
1062,5.4
1063,-22.7
1064,31.4
1067,13.1
1068,3.3
1073,27.6
1075,25.1
1076,31.3
1077,21.5
1079,30.5
1080,32.0
1081,24.6
1086,21.9
1087,15.9
1088,8.0
1091,6.2
1093,17.0
1094,4.4
1097,12.5
1098,10.8
1099,19.8
1101,15.8
1103,15.7
1110,-2.1
1112,9.2
1116,27.7
1121,-12.4
1122,14.2
1123,21.8
1125,22.7
1128,25.3
1129,19.2
1131,3.6
1134,39.1
1135,24.7
1136,31.8
1139,3.4
1140,28.1
1143,12.6
1144,6.8
1145,15.9
1146,14.8
1149,25.4
1150,6.6
1153,20.3
1154,26.6
1157,21.0
1159,5.4
1161,10.5
1162,28.7
1164,6.8
1166,20.2
1167,17.2
1168,5.6
1173,7.0
1174,29.0
1178,8.2
1179,13.5
1181,10.3
1182,15.8
1184,20.2
1185,23.7
1187,12.8
1189,0.5
1190,19.1
1191,6.0
1192,18.1
1194,6.7
1195,11.5
1197,4.8
1198,7.1
1199,9.4
1200,0.5
1201,16.8
1202,15.0
1207,30.2
1210,0.5
1211,31.0
1213,26.9
1215,18.9
1216,9.2
1218,25.7
1219,7.2
1220,-7.2
1222,16.2
1223,9.5
1224,13.5
1229,24.6
1230,15.0
1231,39.1
1232,10.4
1234,13.6
1235,27.0
1239,4.8
1241,3.2
1243,-15.0
1248,13.0
1250,12.7
1251,29.2
1252,25.5
1253,32.1
1255,26.2
1256,5.7
1258,22.0
1260,11.8
1261,23.0
1266,5.6
1267,13.3
1269,13.0
1270,14.6
1273,14.3
1275,20.5
1277,20.0
1278,5.6
1280,13.7
1281,26.7
1288,6.5
1289,0.5
1290,14.4
1291,10.4
1293,31.7
1297,21.4
1299,0.5
1302,22.8
1308,28.1
1309,8.2
1312,30.3
1316,17.1
1318,8.5
1319,-4.7
1320,3.8
1321,7.8
1324,20.8
1326,32.9
1327,22.5
1330,15.3
1332,39.1
1341,13.3
1342,10.5
1343,-7.2
1354,31.3
1358,8.3
1359,5.5
1360,27.2
1362,10.7
1365,27.5
1366,15.9
1368,23.5
1369,5.3
1370,29.8
1372,21.7
1373,23.9
1375,31.8
1376,12.7
1377,10.8
1382,29.7
1384,13.0
1386,29.2
1387,22.0
1389,-2.1
1391,12.0
1392,27.8
1393,4.3
1395,14.2
1400,-9.8
1402,6.7
1404,8.7
1407,19.8
1412,41.6
1414,3.0
1415,17.7
1419,9.4
1420,10.9
1423,3.0
1424,17.6
1425,9.3
1426,7.0
1427,28.7
1431,29.2
1432,10.9
1433,36.5
1437,10.8
1439,11.1
1440,6.5
1442,25.6
1443,9.9
1444,15.9
1445,12.5
1446,9.3
1448,3.6
1451,15.4
1452,26.9
1453,15.6
1454,15.1
1457,15.9
1460,23.9
1462,28.8
1463,22.8
1465,21.2
1468,0.5
1469,32.0
1474,30.6
1478,3.0
1479,20.1
1480,8.2
1482,19.1
1485,28.7
1486,31.2
1487,18.3
1488,-4.7
1490,26.0
1494,29.1
1495,25.6
1496,13.5
1500,-12.4
1507,28.7
1509,10.1
1510,27.9
1511,12.9
1512,39.1
1514,25.5
1516,16.6
1517,28.4
1519,6.7
1524,15.9
1526,11.0
1529,8.9
1531,22.3
1532,15.7
1533,19.6
1535,19.8
1536,18.5
1538,6.6
1541,6.2
1544,14.5
1545,28.0
1547,5.6
1548,11.1
1549,24.6
1550,27.9
1551,9.1
1555,31.4
1556,20.7
1557,8.2
1562,25.8
1563,30.0
1564,18.2
1565,9.2
1567,0.5
1571,17.1
1577,0.5
1578,22.6
1579,13.8
1581,18.4
1582,25.0
1584,9.4
1585,11.5
1587,17.2
1588,3.4
1589,5.6
1592,10.5
1593,10.0
1596,3.3
1597,3.4
1598,30.4
1599,-7.2
1605,31.3
1606,13.5
1610,41.6
1611,18.4
1612,22.1
1618,15.6
1619,3.7
1621,19.3
1622,-9.8
1629,14.9
1630,13.5
1631,26.6
1633,31.3
1635,32.1
1637,30.7
1638,5.0
1639,28.4
1641,28.9
1642,10.0
1644,18.5
1645,5.5
1652,4.0
1653,22.6
1654,16.5
1655,7.0
1656,13.3
1658,11.1
1661,11.4
1662,3.6
1663,24.2
1667,17.8
1668,-2.1
1670,20.7
1671,24.1
1672,6.0
1674,9.5
1676,11.1
1679,-7.2
1681,32.9
1683,10.2
1684,19.5
1686,5.3
1688,21.6
1689,24.4
1690,41.6
1692,12.3
1693,31.6
1697,30.7
1698,7.3
1700,11.3
1701,0.5
1704,31.6
1705,3.8
1706,24.9
1707,19.7
1710,7.5
1711,14.7
1712,36.5
1713,10.7
1715,31.0
1721,15.2
1722,8.5
1723,14.2
1724,18.5
1725,32.8
1726,28.3
1728,26.8
1731,8.6
1732,3.4
1733,28.0
1734,23.8
1735,15.9
1737,23.2
1739,8.2
1741,6.0
1744,19.0
1745,21.7
1746,3.0
1748,4.1
1750,12.2
1754,18.8
1756,6.0
1757,3.0
1761,14.4
1762,4.5
1763,3.4
1765,19.4
1767,-4.7
1768,16.5
1775,22.6
1776,4.7
1778,-9.8
1781,30.9
1786,26.4
1790,41.6
1793,4.0
1795,13.1
1796,26.8
1797,14.7
1799,27.1
1801,24.6
1802,8.2
1803,5.1
1804,13.8
1810,15.3
1811,19.3
1812,36.5
1813,3.9
1814,13.2
1816,17.3
1818,12.4
1819,4.8
1820,17.8
1822,7.1
1823,18.5
1830,31.7
1835,13.3
1838,19.9
1839,3.4
1840,27.0
1843,9.5
1844,16.8
1846,0.5
1847,8.7
1848,26.4
1849,22.6
1851,8.1
1853,5.8
1856,9.1
1857,0.5
1863,27.4
1864,20.0
1865,25.3
1866,17.2
1867,0.5
1868,5.3
1871,14.7
1874,7.3
1877,6.6
1878,-4.7
1879,27.1
1881,10.6
1884,29.1
1886,24.3
1887,11.4
1888,15.2
1889,41.6
1890,6.4
1894,17.9
1895,20.1
1896,19.4
1900,-17.5
1901,32.8
1904,5.1
1906,28.0
1908,16.6
1909,12.2
1910,15.2
1912,26.2
1913,32.5
1915,7.3
1916,9.8
1917,12.0
1920,28.7
1925,13.3
1929,30.9
1931,7.0
1936,5.6
1937,13.8
1938,5.8
1941,14.9
1944,7.3
1946,0.5
1949,8.4
1950,30.3
1954,11.1
1955,5.5
1956,-2.1
1960,31.6
1961,30.4
1965,22.9
1968,33.9
1970,3.5
1974,11.1
1979,-20.1
1982,25.3
1983,16.4
1984,28.3
1985,29.5
1987,14.3
1992,28.8
1993,3.7
1994,23.2
2001,15.6
2003,15.9
2004,21.8
2005,12.5
2009,9.7
2010,6.9
2012,15.3
2013,22.5
2015,10.8
2016,21.1
2021,12.0
2024,19.7
2025,32.1
2026,-4.7
2028,23.3
2029,11.1
2030,13.3
2031,23.8
2032,20.5
2034,13.5
2035,14.5
2037,-12.4
2038,6.9
2040,6.2
2044,23.0
2047,12.6
2048,30.9
2050,39.1
2051,20.4
2052,28.2
2057,8.1
2060,15.9
2062,15.9
2066,29.4
2068,32.8
2069,24.1
2070,25.0
2073,18.5
2074,27.1
2075,29.5
2076,10.7
2081,19.7
2083,26.7
2084,5.6
2086,30.2
2088,18.4
2089,15.6
2091,9.4
2092,14.4
2093,4.8
2095,5.6
2096,3.3
2097,18.8
2098,12.4
2099,10.8
2102,18.3
2103,9.9
2105,0.5
2106,27.6
2108,19.7
2109,5.7
2110,19.9
2114,20.2
2115,0.5
2116,17.7
2117,21.6
2119,20.0
2120,5.6
2122,12.0
2123,4.5
2124,20.1
2125,24.8
2126,3.0
2127,18.9
2128,27.7
2131,29.8
2134,32.2
2137,-7.2
2139,14.8
2140,31.9
2141,21.8
2142,28.0
2143,26.6
2145,32.4
2146,11.4
2147,11.1
2148,36.5
2151,16.1
2153,16.5
2154,31.5
2155,18.1
2157,6.5
2159,-17.5
2161,20.2
2163,18.8
2164,12.6
2165,16.0
2170,7.4
2171,21.0
2174,28.7
2175,8.0
2176,32.9
2179,9.0
2183,8.2
2184,24.8
2185,23.6
2191,25.3
2193,29.0
2194,8.2
2197,13.8
2198,12.9
2202,29.4
2204,3.0
2205,25.8
2209,3.1
2212,3.6
2214,3.0
2216,19.5
2217,14.3
2218,26.8
2219,25.3
2221,32.8
2223,16.6
2225,-2.1
2226,20.8
2229,21.4
2236,-9.8
2237,3.1
2240,18.6
2242,26.0
2243,20.0
2246,5.7
2247,36.5
2248,10.6
2250,15.2
2252,3.1
2253,20.4
2255,28.7
2257,5.8
2259,-9.8
2260,20.0
2261,25.2
2262,7.6
2263,10.1
2264,23.6
2266,9.0
2269,16.7
2271,26.2
2272,28.0
2273,23.2
2277,31.4
2279,20.3
2280,16.8
2281,24.5
2282,13.3
2283,4.3
2285,3.3
2287,26.9
2290,13.1
2291,19.3
2292,28.3
2293,5.6
2294,5.5
2295,28.6
2297,30.3
2299,15.8
2302,33.0
2303,14.7
2304,0.5
2306,4.2
2307,3.7
2309,20.9
2314,0.5
2316,28.2
2320,20.7
2321,11.3
2324,9.6
2325,-7.2
2326,16.0
2327,29.7
2328,24.7
2329,10.3
2330,16.4
2332,30.9
2336,-12.4
2337,18.7
2338,5.6
2339,5.8
2341,21.1
2342,22.4
2344,23.8
2345,12.9
2348,7.2
2349,36.5
2350,20.2
2353,27.1
2356,7.5
2360,10.8
2363,3.5
2365,22.1
2367,27.1
2368,22.9
2370,5.1
2371,18.5
2372,9.1
2373,25.9
2374,11.3
2379,15.3
2381,16.4
2382,3.0
2383,14.3
2384,20.2
2387,20.9
2394,5.6
2395,11.5
2399,29.7
2400,11.2
2401,15.1
2404,-2.1
2408,16.2
2411,24.5
2415,-9.8
2418,5.9
2419,19.5
2420,11.0
2423,22.3
2425,3.5
2426,33.9
2427,7.2
2431,26.1
2432,30.3
2435,23.7
2437,7.6
2438,-22.7
2439,7.1
2441,9.7
2448,16.4
2449,30.7
2450,21.0
2451,11.7
2453,3.0
2454,31.8
2455,14.7
2456,4.0
2457,13.4
2459,29.6
2462,10.8
2465,17.9
2467,23.7
2468,30.1
2469,17.0
2471,26.7
2473,3.0
2474,13.8
2481,32.1
2484,-2.1
2490,15.3
2493,7.8
2495,-12.4
2498,30.9
2502,13.3
2504,16.6
2507,39.1
2511,3.3
2512,5.6
2513,21.6
2515,32.8
2517,19.8
2519,10.8
2520,7.2
2523,24.0
2524,6.2
2525,6.5
2527,15.6
2528,5.1
2531,21.0
2537,8.3
2538,21.9
2542,8.2
2547,12.8
2548,19.9
2551,11.6
2552,8.2
2559,29.0
2560,14.9
2561,29.5
2563,3.0
2564,4.8
2568,21.0
2573,0.5
2575,9.6
2578,10.9
2581,15.3
2582,4.6
2583,-4.7
2584,6.8
2586,10.3
2587,7.3
2588,5.6
2591,5.7
2592,29.4
2595,-12.4
2596,30.2
2598,9.0
2600,30.1
2602,20.0
2608,36.5
2609,32.7
2610,21.8
2612,5.1
2614,5.7
2615,3.9
2619,13.3
2621,30.1
2626,31.4
2630,18.5
2631,24.5
2634,3.3
2635,25.1
2637,16.1
2639,12.8
2640,31.7
2641,5.6
2642,26.2
2644,24.9
2645,32.2
2646,10.8
2649,14.5
2652,5.6
2653,4.4
2654,29.3
2656,22.7
2657,29.8
2659,32.4
2661,15.6
2662,9.6
2663,0.5
2665,22.0
2667,14.5
2670,32.0
2672,6.2
2673,0.5
2679,5.6
2680,10.1
2682,14.0
2683,-4.7
2684,24.6
2685,27.0
2688,32.5
2689,31.9
2693,12.3
2695,-12.4
2696,28.4
2697,10.8
2701,13.5
2703,31.8
2706,5.5
2707,36.5
2708,33.0
2709,19.0
2710,7.9
2711,12.5
2712,6.0
2715,23.4
2718,15.9
2720,27.8
2721,23.0
2725,8.5
2726,16.6
2728,3.1
2731,21.0
2732,14.8
2734,15.5
2735,27.3
2736,31.0
2737,31.0
2738,26.5
2741,31.6
2742,5.6
2744,28.7
2745,11.3
2746,5.3
2747,30.8
2750,29.4
2752,3.0
2754,29.5
2756,15.3
2762,-2.1
2764,19.4
2765,18.3
2767,28.3
2768,26.7
2772,11.8
2773,17.0
2774,-7.2
2775,5.4
2776,7.8
2777,4.8
2779,9.2
2780,3.5
2784,15.4
2785,39.1
2786,31.0
2790,27.2
2797,-7.2
2798,12.1
2802,20.0
2804,32.8
2805,32.2
2806,6.8
2807,12.4
2808,31.3
2810,11.2
2812,9.3
2813,4.6
2816,24.8
2819,29.4
2820,15.9
2821,25.6
2822,19.4
2825,31.4
2828,7.5
2829,13.1
2831,10.8
2832,22.1
2834,28.3
2836,21.1
2838,25.5
2839,7.9
2840,10.7
2842,-4.7
2844,26.6
2849,3.5
2850,15.0
2852,23.7
2854,-9.8
2855,27.0
2856,22.3
2857,5.6
2858,6.7
2860,23.1
2862,21.4
2864,26.2
2866,39.1
2868,19.4
2869,5.4
2875,7.4
2877,0.5
2879,10.5
2880,28.7
2884,15.9
2885,12.2
2886,13.1
2887,36.5
2888,20.6
2889,11.6
2890,29.2
2891,18.1
2893,8.4
2894,4.9
2898,15.9
2899,18.5
2902,20.6
2903,15.6
2906,3.7
2910,13.3
2912,15.2
2914,10.8
2916,26.2
2917,13.4
2921,6.0
2922,0.5
2925,6.0
2927,4.3
2928,5.7
2929,27.5
2930,14.1
2932,0.5
2935,8.9
2937,25.5
2938,5.5
2939,24.8
2941,10.4
2942,-4.7
2944,3.9
2945,24.2
2948,4.5
2950,21.3
2953,31.5
2954,-12.4
2955,15.7
2960,27.7
2961,10.2
2965,7.3
2966,36.5
2968,24.4
2971,22.3
2972,18.2
2973,4.6
2974,4.8
2975,7.9
2976,33.0
2977,15.9
2979,9.0
2980,20.8
2982,19.5
2983,20.8
2990,18.5
3001,5.6
3011,5.6
3012,21.1
3013,31.7
3015,5.4
3016,27.2
3017,4.0
3020,3.4
3021,-2.1
3023,11.9
3025,31.1
3026,27.4
3027,10.2
3029,25.5
3030,17.9
3031,6.0
3032,27.7
3033,-9.8
3034,25.9
3035,19.6
3037,4.4
3038,25.5
3039,29.5
3040,25.7
3041,29.5
3043,7.7
3044,36.5
3046,32.6
3049,13.6
3052,24.5
3054,32.3
3055,32.7
3056,-9.8
3058,24.7
3060,10.8
3061,20.5
3062,11.5
3063,32.3
3064,17.0
3066,18.7
3067,28.8
3070,29.0
3071,30.6
3074,21.9
3077,5.3
3078,31.7
3079,13.3
3081,13.2
3086,13.1
3089,8.0
3090,8.2
3092,6.6
3096,17.2
3099,8.0
3100,3.0
3103,18.9
3104,29.0
3107,16.3
3110,3.0
3112,25.3
3114,17.2
3119,26.4
3121,21.0
3122,-2.1
3123,4.7
3124,9.8
3130,6.4
3133,-9.8
3134,15.5
3136,15.8
3138,19.6
3139,18.4
3143,26.4
3144,39.1
3145,17.1
3146,28.0
3147,6.9
3148,9.1
3152,20.9
3153,25.7
3155,-2.1
3158,22.0
3160,14.5
3161,17.4
3163,26.2
3165,19.1
3166,17.6
3167,28.8
3168,28.1
3169,4.2
3170,29.3
3171,19.8
3172,6.2
3173,30.1
3174,8.5
3175,11.6
3176,3.4
3178,13.3
3179,24.7
3180,19.5
3181,26.5
3186,17.0
3187,32.1
3188,3.9
3190,5.6
3191,8.1
3192,10.7
3194,29.0
3196,8.8
3197,26.0
3199,9.4
3201,0.5
3202,14.9
3203,8.6
3207,32.1
3209,6.6
3211,0.5
3213,20.6
3215,26.7
3219,14.5
3220,23.1
3221,-7.2
3222,14.5
3223,13.6
3224,16.7
3229,15.0
3230,17.2
3231,14.7
3232,-12.4
3235,16.3
3237,23.5
3238,5.0
3240,21.6
3241,6.6
3244,20.3
3245,36.5
3246,32.5
3248,30.9
3249,23.9
3250,31.2
3252,31.3
3256,5.7
3257,15.9
3259,4.6
3264,6.5
3265,15.2
3268,18.5
3270,11.9
3272,7.4
3274,5.2
3275,17.4
3276,3.3
3278,8.9
3279,5.6
3280,4.4
3282,31.2
3284,27.4
3286,18.7
3287,10.7
3288,26.5
3289,11.5
3290,3.0
3291,9.4
3292,25.4
3293,6.4
3294,19.1
3299,9.7
3300,0.5
3301,7.1
3302,19.3
3303,11.8
3305,5.0
3306,3.7
3309,12.0
3310,0.5
3311,6.2
3312,15.8
3314,27.3
3315,5.2
3316,3.5
3317,28.7
3318,4.4
3321,-2.1
3322,6.0
3324,30.3
3325,14.3
3327,24.6
3328,25.9
3329,24.4
3333,-15.0
3335,32.7
3338,23.9
3339,15.1
3341,26.8
3343,9.9
3344,29.0
3345,33.9
3355,21.4
3356,15.9
3361,12.9
3365,12.3
3367,15.9
3370,5.7
3377,3.1
3379,3.0
3385,3.5
3386,6.6
3388,25.8
3390,3.0
3393,30.4
3398,15.6
3399,26.1
3400,-2.1
3401,7.7
3405,18.2
3406,27.3
3408,26.6
3409,28.7
3411,-9.8
3412,6.7
3415,17.2
3416,19.6
3418,12.6
3422,25.9
3423,39.1
3425,28.9
3428,7.1
3432,26.1
3434,-4.7
3437,30.2
3440,30.2
3441,12.9
3445,28.8
3447,6.0
3451,10.0
3452,14.2
3453,19.9
3454,18.2
3455,13.2
3456,10.8
3457,14.3
3458,15.9
3459,31.2
3461,4.4
3467,23.1
3469,5.6
3470,21.0
3471,7.8
3472,25.0
3473,3.6
3474,11.9
3475,11.8
3476,25.8
3479,3.0
3480,28.3
3484,14.1
3486,11.4
3489,0.5
3491,26.2
3493,17.1
3494,4.1
3497,4.9
3498,6.1
3500,-7.2
3503,16.8
3504,4.8
3510,18.0
3511,-12.4
3513,6.7
3515,14.5
3516,10.9
3520,22.6
3521,18.9
3522,22.2
3524,36.5
3525,9.9
3533,22.9
3534,4.8
3535,13.3
3539,5.9
3540,12.5
3542,32.4
3545,18.9
3547,21.0
3548,26.3
3549,29.7
3551,11.9
3553,5.2
3555,12.1
3556,28.4
3558,5.6
3559,24.2
3561,23.2
3566,14.5
3567,7.9
3568,5.6
3570,8.2
3572,10.8
3578,0.5
3581,25.6
3583,23.6
3586,15.1
3587,7.4
3590,0.5
3591,16.5
3592,19.7
3593,28.0
3600,-7.2
3601,32.9
3602,16.5
3607,15.9
3608,7.1
3609,16.4
3610,29.8
3611,-12.4
3615,23.5
3617,7.3
3619,31.4
3622,28.8
3623,36.5
3624,24.2
3626,31.3
3628,9.2
3633,19.5
3635,13.3
3638,30.6
3639,17.3
3642,23.7
3646,18.5
3648,13.7
3650,6.8
3654,29.8
3656,15.9
3657,18.1
3658,5.6
3659,17.3
3660,4.6
3661,29.9
3663,23.8
3668,3.0
3669,26.9
3670,18.5
3672,31.1
3673,32.8
3674,20.7
3675,10.0
3678,4.7
3679,-2.1
3681,13.0
3683,14.1
3684,10.1
3686,3.2
3688,26.6
3690,-9.8
3691,23.6
3695,31.3
3700,21.1
3701,36.5
3704,7.3
3710,9.0
3711,15.5
3713,-9.8
3715,5.5
3717,30.1
3720,20.9
3721,16.5
3723,31.5
3725,28.8
3727,26.3
3728,12.4
3730,23.5
3731,25.1
3733,15.3
3736,15.9
3737,4.7
3743,17.2
3745,20.9
3747,8.2
3748,16.9
3751,24.3
3752,13.3
3758,3.0
3761,7.8
3762,28.5
3764,20.6
3765,28.9
3767,10.2
3768,0.5
3769,26.4
3770,10.8
3771,28.4
3772,17.3
3774,28.8
3775,25.5
3776,6.9
3778,-4.7
3780,24.9
3781,8.4
3787,24.2
3788,8.3
3790,-12.4
3791,22.3
3792,17.5
3793,6.2
3794,5.3
3795,16.9
3796,14.1
3797,29.6
3799,15.8
3801,6.6
3803,36.5
3805,17.8
3809,15.7
3814,15.9
3816,4.7
3817,11.8
3821,21.5
3822,19.3
3823,6.4
3824,11.0
3825,18.5
3826,19.6
3829,20.3
3831,10.0
3834,14.2
3835,31.2
3836,5.6
3838,28.1
3839,31.7
3840,3.2
3842,20.5
3843,27.2
3844,8.6
3847,5.6
3848,30.0
3849,25.4
3851,32.8
3852,32.5
3856,26.8
3857,3.4
3858,0.5
3862,32.9
3867,29.7
3868,0.5
3869,8.5
3870,14.9
3872,17.9
3873,5.3
3877,15.7
3878,-7.2
3882,3.8
3884,5.1
3887,16.9
3890,-12.4
3891,29.6
3892,3.6
3893,9.5
3897,32.9
3898,15.0
3902,36.5
3904,8.8
3905,29.6
3907,4.2
3910,13.3
3911,3.3
3913,15.9
3915,4.0
3916,20.5
3918,9.3
3919,15.4
3920,16.8
3924,10.6
3925,11.4
3926,15.9
3929,20.3
3930,28.6
3932,28.9
3933,16.2
3936,19.9
3937,5.6
3939,26.5
3941,16.0
3942,10.2
3943,19.7
3944,19.2
3946,31.7
3947,5.6
3949,4.0
3951,14.9
3953,30.9
3954,10.8
3955,7.7
3957,-2.1
3961,13.5
3962,24.9
3964,27.5
3966,19.5
3967,6.3
3969,-9.8
3971,21.1
3972,25.1
3974,9.7
3979,16.9
3980,36.5
3982,7.7
3986,25.7
3988,8.4
3991,28.8
3992,-15.0
3999,7.8
4000,20.2
4001,27.7
4002,9.7
4004,21.0
4005,22.6
4007,12.0
4009,26.2
4015,27.5
4016,8.2
4023,4.8
4024,27.9
4026,8.2
4030,24.6
4034,16.6
4035,22.4
4036,3.0
4039,27.7
4040,16.6
4042,8.0
4043,22.3
4044,13.7
4046,3.0
4047,9.2
4048,17.7
4049,21.7
4051,21.8
4052,14.2
4053,16.6
4057,3.0
4058,-2.1
4061,28.8
4062,16.0
4064,27.5
4065,15.6
4069,-9.8
4073,17.9
4077,13.9
4079,15.4
4080,36.5
4081,29.1
4082,8.1
4085,19.4
4086,23.0
4091,-7.2
4093,30.7
4096,20.0
4099,28.3
4100,8.2
4103,26.2
4105,4.4
4110,8.6
4112,5.3
4113,14.1
4114,13.3
4115,27.8
4123,12.0
4125,27.4
4126,8.2
4130,21.6
4133,11.4
4136,0.5
4138,19.3
4139,30.4
4140,20.5
4141,8.2
4144,7.7
4147,0.5
4148,31.7
4150,10.4
4151,8.2
4154,31.7
4157,-7.2
4158,10.3
4159,5.0
4161,7.6
4163,14.2
4166,22.6
4167,12.9
4168,-12.4
4172,28.6
4174,4.8
4179,21.5
4180,36.5
4186,24.9
4188,32.7
4189,11.5
4193,13.3
4194,26.9
4204,18.5
4206,23.5
4207,4.0
4214,28.7
4215,5.6
4217,20.4
4220,27.4
4221,27.3
4223,11.5
4226,3.0
4228,26.5
4229,21.7
4230,25.7
4235,10.4
4236,-2.1
4238,29.3
4239,11.8
4240,10.4
4246,30.6
4247,-9.8
4248,20.8
4252,7.0
4256,27.4
4258,3.8
4259,36.5
4260,19.9
4261,25.2
4264,33.0
4265,9.9
4267,6.8
4271,-17.5
4276,32.0
4277,11.1
4281,11.1
4283,23.6
4284,7.9
4285,20.4
4286,16.3
4288,13.0
4289,21.0
4291,12.4
4292,29.2
4293,21.0
4294,8.2
4302,7.0
4304,10.8
4306,4.7
4307,7.3
4308,32.0
4309,15.0
4311,5.3
4312,16.8
4313,20.6
4316,-4.7
4317,11.3
4320,5.0
4321,3.4
4322,8.5
4328,-9.8
4329,26.2
4330,11.0
4331,5.8
4332,9.1
4333,16.4
4334,21.7
4335,26.9
4336,20.6
4337,8.4
4339,36.5
4340,16.4
4341,24.1
4342,6.0
4345,14.2
4346,24.7
4347,6.8
4349,15.7
4350,-4.7
4354,31.5
4355,17.2
4356,7.5
4357,28.6
4359,21.9
4362,26.2
4366,15.0
4369,14.5
4370,29.9
4371,7.3
4372,3.8
4373,13.3
4375,21.6
4377,6.6
4378,27.3
4381,9.9
4382,3.1
4384,20.8
4385,8.2
4387,22.8
4388,29.4
4393,30.1
4394,12.5
4395,7.1
4396,0.5
4397,4.8
4399,8.0
4400,6.2
4402,13.6
4403,9.9
4405,13.0
4406,0.5
4408,3.3
4409,5.8
4410,9.3
4413,26.2
4415,6.0
4416,-4.7
4417,22.2
4422,12.0
4427,-15.0
4429,23.0
4434,4.5
4438,28.5
4439,17.6
4440,36.5
4443,20.7
4444,22.1
4446,10.8
4447,21.2
4452,13.3
4454,6.8
4455,23.8
4457,10.5
4460,6.9
4463,18.5
4464,32.1
4471,18.1
4472,10.1
4474,3.0
4476,27.6
4481,21.8
4483,23.3
4485,3.0
4490,24.0
4492,19.2
4494,6.3
4495,0.5
4499,8.4
4500,30.8
4501,3.2
4504,26.1
4505,-2.1
4506,17.5
4509,4.2
4510,17.8
4511,14.5
4516,26.2
4522,20.2
4524,31.8
4528,29.4
4529,-22.7
4536,25.7
4537,20.7
4538,32.6
4539,15.9
4540,5.9
4541,28.8
4542,29.2
4543,31.3
4547,8.0
4548,17.0
4549,19.3
4550,11.7
4552,13.3
4553,16.0
4554,4.7
4555,18.6
4556,22.1
4560,26.6
4561,13.8
4563,8.2
4566,18.8
4568,8.8
4569,25.2
4570,8.2
4572,26.2
4573,24.0
4574,5.6
4576,24.3
4577,17.3
4578,15.1
4579,8.2
4582,25.2
4584,11.0
4585,3.0
4587,17.5
4588,22.8
4589,26.4
4590,13.9
4591,30.7
4593,28.9
4594,22.1
4595,-4.7
4596,12.6
4598,14.2
4600,26.6
4601,14.8
4604,19.7
4605,8.2
4606,-9.8
4608,29.1
4609,3.3
4610,6.2
4613,8.5
4615,24.9
4616,22.9
4618,36.5
4619,22.1
4620,8.0
4622,29.5
4623,12.0
4626,8.2
4627,15.3
4628,20.7
4629,-7.2
4631,10.6
4636,8.4
4637,3.4
4640,26.2
4642,28.5
4644,8.1
4651,7.9
4653,13.3
4655,30.7
4656,5.6
4659,20.1
4662,8.3
4663,3.3
4664,5.6
4668,3.4
4669,24.1
4671,15.5
4672,8.1
4673,23.8
4674,0.5
4675,4.2
4676,15.3
4678,3.0
4679,30.6
4680,29.8
4683,27.8
4684,0.5
4686,4.6
4688,20.4
4689,15.9
4691,8.6
4692,17.3
4693,11.6
4694,4.2
4695,-4.7
4697,24.5
4698,21.4
4699,4.5
4701,25.8
4705,20.2
4706,-12.4
4707,10.4
4709,25.9
4710,19.2
4717,8.3
4718,7.8
4719,36.5
4720,28.1
4721,5.8
4722,31.5
4723,9.7
4724,28.6
4726,23.8
4729,15.6
4730,10.8
4731,3.6
4733,18.9
4734,16.8
4735,22.8
4737,12.6
4740,11.4
4741,6.3
4742,18.5
4746,23.6
4750,15.5
4751,28.2
4752,17.2
4753,5.6
4754,16.1
4757,6.9
4758,11.4
4760,24.3
4762,24.4
4763,8.2
4764,13.6
4766,3.4
4768,12.8
4770,16.9
4771,9.0
4773,-2.1
4774,15.7
4776,16.3
4777,15.8
4779,7.4
4782,9.7
4783,6.3
4784,32.5
4785,29.6
4786,-7.2
4787,26.6
4792,6.4
4793,22.3
4795,26.8
4797,36.5
4799,10.8
4805,24.4
4808,-22.7
4809,31.9
4812,12.0
4817,31.2
4820,23.6
4821,24.5
4822,14.7
4823,11.3
4824,27.5
4825,6.5
4826,25.5
4827,16.8
4828,16.9
4832,8.2
4834,22.8
4835,14.7
4836,13.9
4838,31.5
4840,29.8
4841,25.6
4842,10.8
4843,15.7
4845,23.8
4846,26.7
4849,21.1
4850,8.4
4851,32.2
4852,27.6
4853,29.4
4854,-4.7
4855,27.3
4857,17.2
4858,28.8
4860,6.0
4861,19.5
4863,3.6
4864,5.6
4865,28.4
4866,-12.4
4867,21.6
4868,19.9
4870,8.2
4877,23.9
4878,39.1
4879,4.2
4880,8.1
4881,19.8
4882,16.4
4886,11.0
4888,11.0
4889,10.8
4890,26.1
4892,8.0
4895,11.1
4897,15.9
4899,13.1
4900,21.0
4901,8.9
4903,27.7
4905,20.2
4908,16.5
4909,25.8
4910,3.3
4912,8.2
4913,13.8
4916,11.8
4923,5.6
4924,19.1
4925,25.4
4926,14.4
4928,25.8
4929,15.5
4933,0.5
4934,20.0
4937,11.4
4938,17.0
4941,8.9
4942,16.0
4943,0.5
4944,24.2
4946,4.9
4950,3.4
4952,31.7
4954,-4.7
4956,20.9
4957,9.8
4959,29.2
4961,21.8
4964,12.4
4965,-12.4
4967,25.3
4968,11.0
4970,5.7
4973,24.8
4975,10.0
4976,26.4
4977,36.5
4980,21.1
4982,28.1
4986,4.0
4988,26.4
4989,13.3
4992,17.3
4994,5.3
4996,23.2
4999,4.5
5001,18.5
5002,17.7
5003,22.4
5004,15.3
5012,5.6
5013,5.8
5014,9.7
5015,18.2
5017,30.2
5020,10.9
5022,5.6
5025,9.4
5026,4.5
5027,24.8
5028,5.5
5032,0.5
5042,25.6
5043,-2.1
5044,28.3
5046,31.9
5048,13.5
5052,15.5
5054,29.9
5055,21.0
5056,28.5
5064,6.9
5066,-22.7
5067,29.3
5076,25.7
5079,31.3
5083,15.1
5084,30.7
5085,30.0
5086,26.5
5087,14.0
5088,11.9
5089,23.8
5090,15.9
5094,18.6
5095,27.5
5097,25.4
5100,20.1
5101,10.8
5107,31.2
5108,7.5
5109,17.3
5111,23.9
5112,-4.7
5116,20.3
5118,6.3
5119,26.3
5120,12.2
5122,4.2
5123,16.6
5125,-9.8
5128,28.2
5129,19.9
5131,3.6
5132,32.3
5136,36.5
5138,13.9
5141,25.6
5144,15.9
5145,13.1
5147,-7.2
5150,4.1
5153,24.2
5156,16.3
5157,30.4
5158,26.2
5160,20.8
5170,10.8
5175,10.4
5176,3.8
5177,17.5
5181,8.2
5182,16.2
5188,9.3
5192,0.5
5196,27.5
5198,17.1
5201,26.7
5202,0.5
5203,30.1
5204,19.4
5206,7.1
5209,25.0
5212,15.6
5213,-7.2
5215,29.6
5216,17.3
5224,-12.4
5227,20.2
5228,11.4
5230,5.4
5235,3.5
5236,36.5
5239,18.4
5240,18.2
5242,18.2
5243,12.9
5244,18.1
5246,12.9
5247,20.9
5248,13.3
5250,27.8
5254,14.6
5256,25.5
5258,20.2
5259,9.1
5260,18.5
5261,23.4
5263,8.1
5264,18.5
5266,21.5
5269,28.4
5270,25.7
5271,5.6
5272,32.6
5274,3.7
5275,28.3
5276,27.0
5278,22.1
5281,5.6
5283,28.4
5284,28.3
5286,22.1
5288,20.1
5290,7.2
5291,6.5
5292,-2.1
5302,16.7
5303,-7.2
5304,10.9
5305,28.7
5308,15.7
5309,24.0
5310,5.3
5313,28.9
5314,33.9
5323,23.5
5324,16.3
5325,15.2
5326,-17.5
5327,9.2
5328,28.2
5330,25.9
5332,15.1
5334,7.9
5336,30.9
5338,23.3
5339,23.6
5342,29.4
5343,17.2
5344,31.3
5348,20.4
5349,8.3
5350,10.8
5351,28.1
5356,28.2
5357,5.4
5358,32.9
5361,3.0
5362,27.5
5368,30.9
5369,17.7
5370,19.9
5371,-2.1
5373,15.6
5374,12.7
5375,29.5
5376,9.1
5377,27.1
5378,16.9
5381,16.7
5382,30.4
5384,-9.8
5389,3.2
5390,15.7
5393,27.9
5395,39.1
5397,21.3
5400,8.1
5403,20.6
5404,7.7
5406,-7.2
5407,9.2
5408,23.9
5412,19.1
5415,31.6
5416,10.0
5417,28.8
5419,29.5
5420,23.2
5421,10.1
5424,12.8
5425,23.6
5426,22.2
5428,23.8
5429,13.3
5434,6.4
5437,13.8
5439,20.0
5440,5.6
5441,32.4
5442,16.5
5444,32.8
5445,21.0
5446,4.9
5448,13.2
5451,0.5
5454,19.2
5456,8.7
5462,0.5
5463,14.0
5468,32.9
5469,18.9
5472,-4.7
5473,31.8
5475,11.1
5480,19.8
5482,18.4
5483,-15.0
5484,26.3
5488,22.8
5489,10.4
5490,4.6
5495,36.5
5496,7.4
5498,29.1
5501,23.3
5504,25.2
5506,17.0
5507,13.3
5508,19.2
5509,15.4
5511,18.1
5514,30.8
5515,14.6
5516,14.3
5519,15.9
5520,22.2
5522,22.9
5523,23.3
5524,13.3
5525,22.4
5526,20.4
5530,5.6
5532,25.7
5535,30.1
5536,4.6
5538,14.4
5539,28.5
5540,5.6
5541,29.5
5542,20.4
5546,24.7
5547,7.3
5548,28.5
5550,18.3
5551,0.5
5552,12.9
5555,9.0
5556,16.5
5558,4.4
5559,17.3
5561,-2.1
5563,31.1
5564,32.3
5565,15.4
5566,12.0
5567,16.4
5570,4.4
5572,23.6
5573,3.9
5575,21.9
5579,3.9
5581,22.2
5582,29.0
5584,-22.7
5586,28.8
5588,16.6
5592,15.1
5594,18.9
5596,21.0
5597,31.3
5598,15.4
5599,8.2
5602,29.1
5608,13.3
5609,11.9
5613,12.0
5614,18.8
5616,25.6
5618,3.9
5619,10.8
5621,28.5
5622,16.7
5624,18.5
5627,22.8
5630,-4.7
5631,32.0
5632,31.5
5633,8.5
5637,22.4
5638,21.9
5639,5.7
5640,15.6
5642,-12.4
5643,3.1
5644,31.1
5646,23.6
5647,24.6
5648,29.5
5649,14.5
5655,36.5
5658,6.3
5661,27.0
5662,15.2
5663,7.0
5664,19.7
5666,10.8
5667,18.9
5669,28.2
5671,10.2
5674,6.6
5675,4.7
5678,18.5
5679,25.7
5680,8.3
5683,30.7
5686,8.8
5687,30.0
5688,10.9
5689,8.2
5690,11.1
5692,12.8
5693,20.8
5694,21.9
5698,8.5
5699,5.6
5700,10.6
5701,32.9
5702,23.4
5703,29.3
5705,30.0
5706,5.4
5708,3.3
5709,0.5
5712,25.4
5714,27.3
5715,30.9
5717,7.3
5718,7.9
5719,29.3
5720,9.4
5721,3.0
5723,20.9
5724,20.6
5731,-4.7
5732,31.2
5733,7.7
5734,9.7
5736,13.9
5737,3.3
5738,19.5
5742,-15.0
5744,11.0
5745,16.5
5748,27.7
5751,30.8
5752,4.8
5753,21.3
5754,36.5
5755,22.5
5757,16.5
5759,7.0
5761,25.6
5762,10.3
5766,13.3
5772,12.5
5773,28.3
5774,29.7
5776,12.3
5777,18.5
5779,13.6
5780,9.7
5781,25.9
5783,10.7
5784,25.6
5787,24.0
5788,27.5
5789,5.6
5792,26.7
5793,26.4
5794,11.4
5798,3.5
5799,3.0
5801,10.3
5803,15.0
5807,24.1
5808,28.2
5810,-2.1
5813,30.0
5815,19.4
5817,6.6
5818,29.2
5820,20.1
5821,-7.2
5823,32.9
5826,10.5
5827,14.1
5828,31.2
5830,15.0
5832,36.5
5833,7.6
5835,8.9
5838,6.8
5842,15.8
5843,-17.5
5845,14.4
5847,27.2
5851,21.1
5852,21.7
5855,18.9
5856,11.5
5857,23.6
5859,5.2
5861,14.2
5863,12.3
5864,27.5
5866,32.0
5867,28.7
5868,10.8
5870,23.0
5874,8.2
5877,25.5
5878,31.5
5879,0.5
5884,8.6
5885,18.7
5887,8.5
5888,31.8
5889,19.9
5890,-4.7
5892,6.9
5897,14.5
5898,14.9
5901,-9.8
5902,32.0
5903,31.5
5904,20.1
5905,15.2
5906,8.7
5910,13.3
5912,36.5
5913,21.3
5915,20.7
5916,29.7
5918,21.0
5919,27.6
5920,20.6
5922,25.1
5924,-4.7
5927,26.7
5931,25.0
5933,10.4
5934,12.6
5936,26.2
5937,19.6
5938,17.3
5942,32.2
5944,19.7
5947,13.3
5948,16.9
5950,17.9
5954,21.3
5956,14.2
5958,5.6
5959,26.4
5964,3.4
5965,6.6
5966,10.6
5967,8.2
5968,0.5
5969,18.7
5970,29.0
5977,10.5
5978,21.2
5979,0.5
5983,10.4
5989,12.8
5990,-4.7
5991,21.1
5997,25.4
5998,32.3
5999,21.0
6001,-12.4
6003,7.6
6008,6.8
6009,3.3
6010,3.1
6011,5.0
6012,11.9
6013,36.5
6014,22.6
6016,22.7
6019,17.0
6023,15.0
6025,13.3
6027,28.2
6028,24.7
6029,31.3
6032,31.7
6034,12.1
6035,22.6
6036,18.5
6038,9.8
6041,4.0
6044,11.5
6045,31.1
6048,5.6
6049,5.1
6051,12.0
6054,3.5
6055,18.5
6057,20.2
6058,12.6
6059,5.6
6060,30.0
6061,28.3
6062,17.1
6064,4.0
6065,21.4
6066,16.0
6067,12.8
6068,23.1
6069,-2.1
6073,11.9
6080,-7.2
6082,25.3
6084,23.0
6086,23.9
6087,11.9
6089,3.3
6091,36.5
6093,21.6
6095,24.3
6096,7.5
6097,18.6
6099,10.0
6103,-17.5
6106,27.9
6107,3.9
6108,31.0
6110,32.8
6111,15.8
6113,31.3
6115,6.1
6116,23.6
6117,31.3
6118,19.8
6120,21.6
6121,6.8
6123,31.1
6124,31.2
6125,27.8
6127,10.8
6129,19.4
6130,32.2
6131,27.5
6132,22.5
6133,28.7
6134,15.1
6135,7.0
6136,3.1
6138,3.0
6139,17.2
6141,13.9
6144,21.8
6146,3.1
6148,21.5
6149,-4.7
6152,15.3
6153,31.1
6157,15.9
6158,13.0
6160,-9.8
6162,17.4
6163,25.7
6168,22.5
6171,39.1
6172,25.0
6174,31.9
6178,11.7
6179,28.4
6182,12.3
6183,-4.7
6184,26.9
6186,12.2
6188,10.7
6189,24.3
6193,12.5
6194,31.9
6195,26.2
6197,22.7
6198,17.5
6206,13.3
6208,21.6
6209,28.5
6213,5.9
6214,4.6
6215,17.7
6217,5.6
6220,8.9
6221,8.1
6223,17.9
6227,0.5
6231,32.1
6234,4.9
6235,15.6
6237,25.7
6238,0.5
6240,25.9
6242,8.4
6244,4.3
6245,23.9
6246,28.0
6249,-4.7
6252,25.3
6255,20.5
6257,24.7
6260,-12.4
6261,20.7
6264,18.5
6265,8.8
6267,16.8
6268,8.7
6269,25.0
6273,36.5
6275,27.3
6278,28.6
6281,12.3
6284,13.3
6285,28.4
6286,11.6
6289,21.3
6290,26.4
6291,17.8
6295,15.9
6296,3.8
6297,25.5
6298,19.0
6301,29.0
6306,3.0
6307,26.2
6316,12.5
6318,3.0
6322,5.0
6324,32.1
6325,3.2
6327,28.1
6328,0.5
6329,15.4
6330,5.3
6331,25.7
6332,5.1
6333,17.1
6336,4.0
6338,-2.1
6339,30.6
6349,26.2
6352,19.7
6353,26.4
6354,13.7
6356,17.5
6357,10.2
6358,22.7
6359,28.9
6360,20.8
6361,-20.1
6362,5.4
6363,13.6
6366,8.8
6368,10.7
6373,31.3
6379,21.2
6381,5.2
6382,26.8
6383,18.3
6385,13.3
6389,13.3
6390,19.3
6392,5.4
6396,10.8
6399,25.1
6401,5.9
6402,29.9
6403,16.6
6408,-4.7
6410,11.1
6411,27.0
6414,14.8
6419,-9.8
6421,14.0
6422,21.1
6423,6.5
6425,15.0
6427,22.4
6429,27.6
6430,36.5
6431,3.1
6433,11.6
6436,20.6
6437,29.8
6439,27.0
6440,24.5
6441,-7.2
6443,12.6
6444,12.4
6445,19.2
6446,32.5
6447,32.8
6450,10.5
6454,26.2
6455,30.7
6456,24.4
6457,7.5
6458,5.4
6460,19.2
6462,23.4
6463,20.7
6465,10.8
6466,14.8
6467,7.8
6468,31.2
6469,24.9
6470,10.2
6474,14.2
6475,27.6
6476,8.2
6484,19.6
6487,0.5
6491,23.5
6493,11.4
6497,0.5
6499,32.2
6500,25.3
6501,22.8
6502,19.0
6504,3.4
6505,14.8
6507,-4.7
6508,7.7
6509,23.9
6510,5.7
6511,30.0
6512,11.5
6513,16.1
6514,21.0
6516,29.0
6517,24.7
6519,-12.4
6523,13.3
6524,15.5
6525,9.0
6526,31.0
6527,21.1
6528,17.1
6532,33.9
6534,10.9
6535,3.6
6536,30.2
6537,30.0
6542,25.9
6543,13.3
6548,28.2
6549,17.6
6551,18.2
6552,31.9
6554,18.5
6555,19.8
6556,32.8
6557,4.3
6559,8.0
6560,32.4
6562,24.5
6563,21.0
6564,21.5
6565,5.6
6566,19.2
6569,24.7
6573,23.8
6574,29.6
6576,5.6
6577,11.5
6580,9.7
6581,5.8
6582,23.4
6583,30.3
6584,27.3
6587,0.5
6591,14.4
6593,5.9
6595,19.1
6596,19.6
6597,-2.1
6598,19.8
6599,13.3
6601,27.0
6603,10.2
6604,22.7
6607,6.3
6608,23.6
6610,22.7
6615,4.0
6617,32.8
6618,27.0
6620,-22.7
6622,23.2
6624,7.8
6625,3.5
6626,9.8
6629,30.1
6630,23.3
6631,17.3
6632,28.8
6633,31.6
6635,13.9
6636,11.4
6637,17.4
6638,23.9
6641,26.7
6642,28.9
6643,13.3
6644,23.4
6648,23.4
6649,7.1
6655,22.2
6656,8.2
6657,8.9
6658,16.3
6659,4.9
6660,14.7
6661,5.2
6666,3.0
6667,21.5
6669,13.2
6670,10.3
6671,11.2
6672,29.3
6673,17.6
6674,14.6
6676,3.0
6679,15.2
6682,29.2
6686,-2.1
6689,8.4
6693,12.8
6695,25.8
6697,-9.8
6699,14.3
6701,3.1
6705,10.0
6706,3.4
6707,25.5
6708,5.2
6709,36.5
6712,19.0
6713,3.5
6714,14.2
6715,27.4
6716,30.2
6718,3.2
6720,30.2
6721,-9.8
6722,18.5
6725,4.5
6726,30.8
6727,4.6
6728,10.1
6729,14.9
6730,10.2
6731,27.9
6732,28.8
6735,14.1
6736,6.9
6737,18.9
6739,22.2
6741,22.4
6743,15.9
6744,13.3
6746,28.1
6747,21.7
6748,20.6
6750,3.3
6752,9.5
6755,8.2
6757,4.3
6761,6.5
6762,7.9
6765,3.0
6768,27.2
6770,10.1
6772,3.9
6775,0.5
6777,13.9
6780,3.7
6783,10.9
6785,7.7
6787,-4.7
6791,9.0
6794,31.3
6796,25.7
6798,-9.8
6801,20.1
6803,23.9
6804,14.0
6805,28.7
6806,20.2
6809,39.1
6812,27.7
6818,32.1
6819,4.2
6820,-4.7
6821,21.7
6823,19.0
6824,4.3
6825,28.9
6832,28.8
6835,16.9
6836,30.5
6837,31.4
6840,31.0
6843,13.3
6844,22.8
6847,10.7
6849,11.2
6850,21.9
6851,31.6
6854,4.3
6855,8.2
6859,11.6
6861,19.7
6863,21.1
6865,0.5
6867,23.8
6868,30.8
6871,9.8
6872,5.7
6873,19.7
6875,21.9
6876,0.5
6878,6.6
6881,19.4
6883,14.7
6886,-7.2
6891,21.9
6893,18.9
6894,11.5
6895,28.2
6896,11.5
6897,-12.4
6898,12.9
6903,32.4
6904,7.7
6909,36.5
6914,8.0
6915,26.8
6917,14.1
6919,6.7
6920,21.5
6922,13.3
6924,4.6
6925,24.0
6926,14.4
6930,10.0
6933,18.5
6934,27.3
6935,6.1
6936,15.6
6940,7.2
6941,19.3
6944,5.6
6946,3.9
6949,3.3
6950,16.5
6951,22.2
6952,25.7
6955,5.6
6956,30.1
6963,15.2
6965,0.5
6966,6.9
6968,13.6
6969,32.8
6970,14.0
6972,14.0
6974,5.1
6975,-2.1
6977,31.6
6978,23.4
6979,5.0
6980,9.9
6985,24.8
6987,23.6
6988,31.5
6989,15.7
6990,27.3
6991,12.5
6992,4.6
6993,18.8
6994,20.2
6996,14.2
6997,8.4
6998,12.1
6999,-22.7
7004,9.3
7007,20.7
7008,12.2
7009,20.0
7010,4.7
7011,28.8
7012,14.3
7013,10.9
7016,25.4
7018,9.4
7020,23.4
7021,12.6
7022,13.3
7024,31.2
7025,30.5
7026,20.5
7028,12.6
7030,16.8
7031,20.2
7033,10.8
7034,25.1
7035,25.8
7036,31.0
7042,22.1
7043,18.9
7045,-2.1
7046,16.0
7047,25.3
7048,12.0
7049,24.6
7050,20.4
7051,15.9
7053,14.7
7057,-12.4
7058,6.7
7064,10.1
7067,29.4
7069,39.1
7070,24.4
7071,17.8
7075,21.8
7080,13.3
7081,19.8
7083,14.9
7085,31.6
7086,14.2
7089,17.1
7090,26.2
7092,21.0
7094,32.1
7096,32.8
7100,23.8
7102,28.4
7103,5.6
7108,27.0
7110,5.7
7112,11.0
7113,28.7
7114,5.6
7115,27.2
7117,6.0
7118,8.6
7120,3.8
7124,0.5
7125,13.8
7127,17.7
7129,9.5
7131,28.5
7135,0.5
7141,7.3
7143,24.2
7144,24.0
7145,-7.2
7147,9.4
7148,23.5
7149,9.3
7150,32.9
7155,15.1
7156,-15.0
7159,10.8
7160,8.6
7164,19.8
7166,7.0
7168,10.2
7169,36.5
7174,7.9
7176,14.8
7177,27.1
7181,13.3
7184,31.9
7185,14.3
7186,28.8
7191,22.6
7192,18.5
7194,10.7
7195,16.2
7201,30.6
7203,5.6
7206,21.7
7207,24.3
7208,9.7
7209,19.0
7211,13.1
7212,7.2
7213,7.1
7214,3.0
7215,23.6
7216,3.7
7218,5.8
7219,23.7
7221,3.0
7223,15.7
7224,0.5
7225,8.7
7226,25.8
7227,8.3
7228,11.4
7229,7.1
7230,31.8
7231,17.8
7234,-2.1
7235,5.1
7241,20.7
7242,7.5
7243,21.2
7245,26.2
7247,27.0
7248,17.5
7249,27.6
7251,28.9
7252,12.8
7253,11.1
7254,13.3
7255,29.9
7256,4.7
7258,-20.1
7262,30.8
7263,12.7
7268,20.1
7269,21.3
7270,31.3
7273,5.1
7279,19.5
7280,9.6
7281,15.9
7285,3.9
7286,24.5
7287,14.8
7289,11.5
7292,10.8
7296,10.4
7297,23.2
7298,8.5
7299,25.8
7300,32.8
7302,24.7
7304,-4.7
7306,7.5
7307,6.8
7308,16.5
7309,17.0
7311,9.1
7315,5.3
7316,-9.8
7318,29.6
7322,18.2
7323,31.8
7325,31.6
7327,39.1
7331,15.1
7334,12.0
7338,17.3
7339,-2.1
7340,30.8
7341,16.3
7345,9.2
7346,13.8
7349,10.1
7350,26.2
7352,26.9
7353,13.1
7355,12.4
7359,21.7
7361,13.3
7363,26.9
7371,7.1
7372,8.2
7374,11.6
7375,24.8
7377,4.1
7378,17.2
7381,24.2
7382,24.8
7383,7.0
7384,0.5
7386,17.9
7388,3.6
7389,22.4
7392,16.0
7393,26.4
7394,0.5
7395,14.0
7396,8.0
7399,16.6
7401,7.1
7402,20.1
7404,-4.7
7405,3.1
7407,30.8
7408,27.9
7410,3.4
7412,4.2
7415,-15.0
7416,24.2
7417,8.7
7418,18.3
7423,32.5
7424,22.0
7425,26.8
7426,31.3
7428,36.5
7429,29.5
7431,26.9
7434,31.4
7435,24.9
7437,11.5
7439,13.3
7444,16.4
7445,12.5
7446,17.6
7451,15.9
7452,20.6
7459,6.1
7460,30.8
7462,5.6
7467,32.4
7470,24.0
7471,20.1
7472,17.5
7473,5.6
7474,20.2
7476,19.3
7478,11.3
7479,32.9
7481,26.7
7483,0.5
7488,10.7
7489,30.4
7491,18.2
7493,-2.1
7494,4.0
7495,25.2
7496,29.7
7497,27.4
7498,3.4
7499,11.5
7500,24.1
7502,22.9
7504,26.2
7507,7.3
7509,15.5
7510,29.2
7513,11.9
7517,-20.1
7525,6.8
7529,31.3
7530,25.4
7531,32.3
7533,10.7
7538,14.4
7540,15.9
7541,6.9
7542,7.7
7543,19.4
7545,24.1
7546,29.4
7549,27.2
7552,10.8
7555,5.2
7560,29.0
7563,-2.1
7564,6.1
7567,21.5
7568,19.9
7574,-12.4
7575,13.2
7578,10.5
7584,3.1
7586,5.2
7587,39.1
7588,23.6
7590,16.1
7591,24.0
7595,30.6
7596,7.9
7599,13.3
7604,30.3
7605,27.5
7608,32.2
7610,21.0
7611,24.1
7613,12.1
7619,17.9
7620,8.2
7621,8.2
7622,29.7
7624,22.1
7625,13.2
7626,24.5
7629,25.4
7631,5.6
7634,23.9
7636,4.9
7638,18.4
7641,18.0
7642,0.5
7643,7.2
7647,32.0
7651,9.2
7653,0.5
7655,18.8
7656,19.4
7659,17.5
7661,12.9
7662,19.4
7663,-4.7
7664,28.4
7665,5.0
7666,18.7
7669,14.5
7670,5.3
7671,24.9
7672,23.9
7674,-12.4
7676,10.7
7677,22.3
7678,15.0
7680,17.0
7682,32.4
7685,21.0
7687,36.5
7688,32.2
7689,32.1
7690,14.7
7693,25.6
7695,12.7
7698,13.3
7699,15.9
7700,16.3
7702,11.1
7705,26.3
7706,14.6
7709,18.5
7710,29.5
7711,19.2
7715,32.1
7716,28.7
7717,28.7
7718,16.3
7719,9.0
7720,27.1
7721,5.6
7722,4.5
7724,19.3
7727,20.2
7728,7.2
7729,5.5
7730,15.0
7732,3.0
7734,3.2
7736,15.6
7737,13.7
7740,12.6
7741,16.5
7742,-2.1
7743,18.2
7746,31.5
7747,12.9
7751,23.0
7753,-7.2
7754,18.7
7756,15.0
7757,12.8
7758,25.8
7763,29.7
7764,33.9
7766,13.6
7767,32.7
7768,8.2
7772,17.1
7773,11.2
7774,3.2
7775,14.6
7776,-17.5
7777,16.4
7779,18.6
7780,27.3
7781,27.3
7782,28.7
7785,11.7
7787,4.7
7788,5.1
7789,26.2
7791,14.5
7793,10.7
7796,6.2
7797,8.3
7798,10.7
7800,8.2
7803,12.1
7806,5.1
7810,18.4
7811,8.2
7812,21.3
7815,31.0
7816,3.1
7818,27.1
7819,28.0
7821,3.0
7822,9.0
7824,15.2
7825,19.0
7826,15.8
7828,18.4
7831,3.0
7832,10.0
7836,12.5
7837,17.1
7840,4.3
7841,-2.1
7842,4.9
7844,3.6
7846,10.4
7848,8.8
7850,29.5
7851,11.9
7854,-9.8
7855,31.1
7856,7.6
7859,9.4
7860,22.3
7861,4.8
7865,39.1
7866,4.4
7868,23.8
7870,24.9
7871,19.2
7874,25.1
7875,9.7
7876,-12.4
7877,32.5
7878,26.3
7879,11.3
7881,5.1
7882,11.1
7884,20.4
7885,20.5
7886,16.0
7888,21.0
7889,5.0
7890,21.2
7891,20.9
7892,29.0
7896,30.6
7898,29.9
7900,10.8
7906,29.3
7908,7.0
7910,11.2
7912,0.5
7913,32.7
7915,19.7
7921,6.3
7922,-7.2
7925,13.9
7927,21.3
7929,18.8
7932,12.0
7933,-15.0
7934,30.4
7935,16.9
7937,13.6
7938,26.1
7943,25.6
7945,17.8
7946,39.1
7948,32.6
7949,32.2
7951,3.4
7955,12.7
7956,22.2
7957,13.3
7958,31.6
7960,20.2
7964,23.3
7965,29.6
7967,20.5
7968,18.5
7974,21.8
7979,19.5
7980,7.2
7981,5.6
7982,32.5
7985,3.0
7987,24.5
7989,10.5
7991,5.6
7992,7.4
7994,29.2
7995,28.7
7996,27.0
7997,32.1
7998,13.6
7999,18.9
8000,32.2
8001,0.5
8002,7.2
8004,18.6
8006,21.3
8008,29.1
8011,0.5
8012,17.1
8014,28.3
8016,7.6
8017,9.8
8019,19.9
8022,-7.2
8025,16.2
8026,16.8
8030,11.6
8032,16.1
8033,-15.0
8034,13.9
8035,14.0
8036,31.5
8037,22.7
8040,5.0
8043,30.0
8044,25.1
8045,32.8
8046,36.5
8054,23.6
8055,24.6
8057,15.9
8058,9.0
8062,18.0
8068,25.6
8069,15.9
8070,6.9
8071,21.2
8072,26.6
8073,18.6
8075,14.9
8077,18.4
8078,31.1
8079,6.2
8080,5.6
8087,15.6
8090,3.0
8093,10.3
8094,26.0
8095,8.0
8097,29.7
8100,-2.1
8101,3.9
8102,22.3
8104,24.7
8105,14.3
8107,21.7
8110,11.4
8113,-9.8
8114,16.8
8115,28.2
8116,11.8
8120,18.5
8122,6.0
8124,36.5
8125,32.5
8127,8.8
8128,3.1
8129,15.1
8130,28.3
8131,9.4
8132,32.0
8133,30.4
8135,-9.8
8136,5.6
8138,5.8
8139,27.4
8142,30.7
8144,26.9
8145,5.7
8146,28.8
8147,19.2
8148,7.5
8150,26.4
8154,29.6
8158,15.9
8162,27.7
8163,27.7
8164,19.9
8165,15.4
8166,19.5
8169,8.2
8173,28.1
8174,31.0
8175,30.8
8176,10.1
8177,16.8
8178,7.3
8180,3.0
8181,22.6
8182,6.6
8183,21.7
8187,31.4
8188,3.8
8190,0.5
8191,7.5
8194,8.1
8197,17.1
8198,27.8
8200,4.7
8201,-4.7
8209,24.3
8210,26.9
8212,-9.8
8214,32.4
8217,12.5
8218,11.2
8219,27.0
8220,19.3
8222,22.1
8223,36.5
8224,4.7
8228,29.7
8233,11.4
8234,17.0
8235,-4.7
8236,16.4
8237,12.7
8239,10.8
8245,21.8
8247,28.8
8250,16.4
8252,17.9
8254,12.4
8255,20.8
8256,5.3
8257,27.6
8258,13.3
8261,28.9
8262,19.2
8266,23.6
8268,28.3
8269,5.6
8271,25.5
8273,16.9
8274,5.0
8277,20.5
8278,12.6
8280,3.0
8284,21.1
8286,19.7
8290,0.5
8293,12.1
8295,18.3
8299,21.3
8300,-4.7
8301,24.4
8305,14.7
8306,15.1
8307,19.5
8308,18.2
8311,19.5
8312,-12.4
8314,16.3
8316,9.2
8318,3.7
8319,7.7
8323,3.5
8324,17.4
8325,39.1
8328,5.4
8330,10.1
8332,15.0
8334,6.3
8335,6.4
8336,13.3
8340,21.9
8342,23.0
8343,3.8
8345,28.5
8346,25.1
8347,18.5
8351,19.4
8353,27.2
8354,6.0
8355,30.9
8356,22.4
8358,3.0
8359,19.2
8361,22.3
8363,28.4
8365,26.5
8367,5.9
8369,5.6
8371,26.0
8373,27.5
8374,3.8
8375,27.8
8378,3.2
8379,15.1
8380,-2.1
8383,24.5
8385,28.5
8387,20.9
8389,29.2
8391,-9.8
8394,4.4
8395,20.6
8397,9.6
8399,26.4
8400,20.7
8401,7.3
8402,36.5
8403,19.6
8407,29.8
8408,9.7
8411,30.2
8414,-17.5
8415,18.3
8419,30.9
8422,16.1
8426,23.6
8427,12.1
8429,30.1
8430,30.6
8432,10.3
8433,12.5
8434,15.6
8435,12.8
8437,10.8
8439,18.3
8450,3.0
8453,15.4
8455,18.6
8458,24.9
8459,9.8
8460,-4.7
8461,32.2
8462,13.1
8463,23.7
8465,3.4
8466,17.6
8467,10.1
8468,6.0
8471,-12.4
8472,8.1
8474,27.2
8475,30.0
8478,9.5
8479,12.7
8483,39.1
8485,13.2
8486,4.3
8489,28.3
8490,12.5
8491,23.3
8492,4.0
8493,6.8
8495,10.8
8496,5.8
8497,17.4
8498,21.1
8499,29.3
8500,9.7
8501,11.2
8503,27.7
8504,10.9
8506,21.0
8507,12.3
8509,32.5
8513,19.1
8514,6.1
8515,5.3
8518,5.6
8521,4.9
8522,29.6
8523,31.5
8524,22.5
8525,24.0
8526,25.6
8528,5.6
8532,31.1
8533,32.3
8535,26.8
8536,28.5
8537,9.0
8539,0.5
8540,19.1
8542,16.3
8545,12.7
8546,25.5
8547,27.6
8549,0.5
8550,26.3
8552,21.1
8553,25.3
8554,20.5
8555,16.1
8556,29.2
8557,21.5
8559,-4.7
8561,19.1
8565,29.2
8566,7.3
8567,22.2
8568,12.1
8570,-12.4
8576,26.3
8578,11.0
8581,15.8
8583,11.8
8584,36.5
8588,15.4
8589,17.2
8591,27.3
8593,3.7
8595,13.3
8596,25.8
8598,10.0
8600,26.2
8606,18.5
8607,24.8
8608,15.8
8611,11.9
8612,3.6
8613,16.0
8617,5.6
8618,31.1
8622,21.4
8624,17.4
8627,25.8
8628,5.6
8629,18.2
8631,9.2
8632,6.6
8633,20.5
8636,17.9
8638,0.5
8640,16.6
8641,30.5
8645,21.0
8646,24.1
8647,7.4
8649,0.5
8650,16.2
8651,6.1
8652,14.8
8653,19.8
8654,25.3
8657,24.3
8659,-7.2
8660,7.1
8663,27.9
8664,12.9
8667,14.0
8671,-15.0
8672,24.2
8674,12.1
8677,7.9
8679,27.6
8680,9.8
8683,36.5
8686,12.0
8687,14.3
8689,32.8
8692,14.2
8694,13.3
8697,19.5
8700,21.8
8701,10.6
8703,10.4
8706,18.5
8707,16.0
8708,14.7
8711,31.4
8712,30.3
8716,12.0
8718,3.0
8721,26.8
8723,28.4
8724,24.3
8726,14.7
8728,3.0
8729,24.8
8730,13.4
8731,22.0
8734,13.7
8735,11.5
8738,-2.1
8741,5.5
8742,21.8
8743,11.0
8745,31.0
8750,-9.8
8752,30.9
8755,6.4
8756,4.9
8757,3.1
8758,3.4
8760,7.8
8761,36.5
8765,8.0
8768,18.4
8772,-12.4
8776,5.8
8777,19.9
8782,5.2
8784,28.0
8785,23.6
8787,11.6
8789,33.0
8794,9.8
8795,25.9
8796,28.1
8797,8.2
8799,23.0
8800,14.6
8801,29.7
8804,24.2
8807,8.2
8808,10.7
8809,19.9
8811,23.8
8813,27.3
8814,11.6
8817,3.0
8818,25.1
8819,6.9
8820,27.3
8821,28.8
8824,19.1
8825,11.7
8827,0.5
8828,22.1
8835,10.2
8838,-4.7
8842,9.0
8844,31.0
8847,27.4
8848,15.7
8850,-9.8
8852,28.6
8853,13.4
8861,36.5
8863,31.0
8864,3.9
8866,24.8
8867,20.6
8868,24.2
8872,-7.2
8873,8.6
8875,19.7
8877,8.7
8878,14.3
8881,16.8
8882,21.0
8883,14.3
8884,26.2
8886,15.5
8887,16.1
8891,5.3
8893,7.2
8895,13.3
8899,12.4
8900,14.8
8901,10.2
8903,8.2
8904,31.5
8905,4.0
8906,5.6
8909,26.8
8912,28.1
8914,7.0
8916,24.0
8918,0.5
8919,9.6
8920,21.4
8922,19.3
8925,5.2
8926,32.7
8928,0.5
8929,24.8
8931,32.2
8933,19.6
8935,29.7
8938,-4.7
8940,17.6
8942,21.5
8943,3.5
8946,17.2
8948,16.6
8949,-15.0
8951,5.2
8952,7.5
8953,12.1
8954,27.4
8955,6.6
8959,11.8
8960,21.5
8962,36.5
8964,9.3
8965,26.3
8966,13.5
8967,16.7
8972,28.5
8973,13.3
8974,30.2
8976,16.0
8981,12.2
8982,29.1
8984,14.3
8985,18.5
8987,4.6
8988,19.5
8989,10.4
8990,25.5
8991,14.4
8993,5.0
8995,20.5
8996,3.0
8997,25.5
9001,25.1
9004,22.3
9005,29.8
9007,5.6
9015,22.0
9016,13.7
9017,-2.1
9018,25.7
9020,22.2
9023,17.6
9026,16.2
9028,-7.2
9031,28.5
9034,10.9
9037,5.8
9038,21.2
9039,33.9
9052,-20.1
9053,3.8
9054,30.8
9055,32.1
9064,23.6
9065,30.6
9066,19.4
9068,3.1
9069,8.4
9073,27.0
9075,10.8
9079,13.3
9080,24.9
9081,32.4
9084,28.0
9085,26.5
9086,3.0
9090,11.1
9093,11.7
9094,23.5
9097,-2.1
9099,29.3
9100,15.0
9102,7.2
9103,19.0
9105,19.1
9106,20.2
9107,12.0
9108,-9.8
9110,25.7
9112,31.7
9114,5.0
9115,30.8
9116,11.3
9118,24.9
9119,23.9
9120,36.5
9121,14.2
9122,17.5
9127,20.4
9131,8.9
9132,-7.2
9133,13.7
9136,6.4
9137,23.9
9138,20.7
9140,18.8
9141,17.0
9143,28.8
9144,27.7
9145,9.4
9148,7.0
9149,23.6
9150,11.7
9152,20.5
9154,13.3
9155,11.6
9165,5.6
9166,16.2
9167,22.5
9171,15.7
9172,18.4
9173,4.6
9176,18.9
9177,0.5
9178,14.2
9181,4.5
9182,6.0
9183,23.9
9184,17.4
9185,10.3
9187,0.5
9188,12.4
9189,20.5
9190,12.7
9196,31.1
9197,-4.7
9198,10.5
9199,16.0
9203,19.0
9206,8.1
9208,-12.4
9214,6.1
9215,27.0
9217,17.6
9218,19.5
9219,19.5
9220,5.9
9221,36.5
9222,21.5
9223,15.2
9224,18.7
9225,15.7
9226,6.9
9232,13.3
9234,25.8
9239,28.2
9243,15.2
9244,18.5
9245,19.4
9247,28.1
9253,7.3
9254,15.8
9255,5.6
9257,20.3
9258,8.9
9263,30.7
9264,24.6
9265,14.2
9266,5.6
9268,10.9
9269,24.2
9276,0.5
9278,8.9
9279,15.1
9280,4.6
9281,8.9
9283,8.6
9284,18.1
9286,0.5
9287,29.2
9288,32.3
9289,23.7
9292,13.1
9293,23.9
9294,23.3
9296,-7.2
9297,30.5
9298,7.1
9301,11.6
9304,5.9
9308,-15.0
9309,11.7
9312,7.6
9313,15.1
9315,17.4
9317,6.1
9318,5.3
9321,36.5
9325,12.6
9329,20.7
9330,7.3
9331,5.9
9332,13.3
9333,28.8
9335,15.7
9336,10.5
9337,28.5
9338,18.6
9339,6.9
9344,18.5
9345,28.6
9351,11.3
9352,3.9
9353,12.6
9354,29.1
9355,5.6
9357,20.6
9360,8.5
9364,8.3
9365,3.0
9366,14.2
9367,7.2
9369,3.8
9372,31.8
9373,25.2
9375,25.7
9376,-4.7
9378,28.5
9379,6.4
9380,9.2
9382,19.0
9387,9.3
9388,-9.8
9389,20.3
9390,8.8
9395,22.3
9397,13.9
9399,36.5
9400,18.5
9401,31.7
9403,6.5
9408,9.4
9410,-15.0
9411,10.3
9412,20.9
9413,13.1
9414,28.8
9416,23.4
9420,13.0
9421,9.5
9422,21.0
9425,8.6
9428,15.0
9430,26.2
9431,11.9
9432,16.3
9434,8.2
9435,26.8
9436,8.2
9437,20.5
9438,15.9
9445,10.8
9447,8.8
9449,8.2
9450,4.6
9454,27.3
9455,31.5
9456,-7.2
9457,10.4
9459,25.5
9460,22.1
9462,17.2
9465,30.1
9466,27.6
9467,-12.4
9469,11.3
9473,20.2
9475,22.1
9480,39.1
9482,13.8
9484,21.7
9486,27.9
9490,13.7
9491,13.3
9492,28.0
9495,5.8
9496,23.7
9499,32.9
9500,32.5
9502,21.0
9503,15.1
9505,27.4
9507,19.9
9508,5.0
9509,17.6
9510,29.9
9511,31.8
9513,14.1
9515,8.2
9516,10.4
9517,22.2
9519,4.8
9525,5.6
9529,30.5
9530,15.5
9531,6.2
9532,17.2
9534,32.8
9535,-2.1
9538,9.6
9539,15.1
9540,20.4
9542,14.1
9543,11.7
9544,16.2
9545,32.8
9546,-9.8
9550,11.1
9553,25.9
9554,16.0
9556,12.5
9557,10.0
9558,33.9
9562,9.3
9564,20.4
9565,23.7
9567,30.8
9568,6.8
9569,-25.3
9570,22.0
9575,26.0
9578,19.5
9581,13.2
9582,26.2
9584,10.5
9585,11.7
9586,29.3
9587,24.2
9588,32.7
9591,17.8
9593,10.8
9596,20.8
9597,11.9
9599,13.2
9603,5.5
9604,22.2
9605,3.0
9609,28.9
9612,23.9
9613,15.6
9614,8.9
9615,-2.1
9616,21.8
9619,30.9
9623,12.7
9624,9.4
9625,22.8
9626,-12.4
9627,15.3
9628,12.9
9630,25.5
9632,10.4
9633,20.3
9637,15.4
9638,36.5
9641,6.0
9646,24.9
9648,7.4
9651,8.2
9653,20.0
9655,20.7
9656,10.1
9657,21.3
9661,28.8
9662,29.7
9667,19.4
9670,22.7
9672,13.3
9675,15.5
9676,13.6
9679,9.7
9680,31.4
9681,5.5
9682,14.8
9683,8.2
9685,26.4
9689,22.7
9690,23.8
9694,3.0
9695,5.7
9696,10.3
9697,17.9
9698,9.2
9700,6.9
9704,0.5
9705,4.8
9707,23.7
9712,26.3
9713,26.2
9715,-4.7
9717,31.3
9719,11.2
9720,21.4
9722,27.4
9723,31.8
9726,-12.4
9727,30.1
9729,3.6
9730,29.9
9738,14.6
9739,36.5
9741,11.3
9748,9.2
9749,7.0
9750,10.8
9751,6.7
9755,11.6
9757,26.5
9761,21.0
9764,20.8
9767,11.9
9768,26.2
9773,5.6
9775,14.9
9776,12.7
9779,11.3
9780,7.3
9781,20.3
9782,27.9
9783,7.9
9784,5.6
9785,28.3
9786,11.9
9787,25.5
9788,9.2
9789,27.5
9791,20.9
9794,0.5
9797,16.8
9798,25.4
9799,20.6
9804,0.5
9805,27.2
9806,21.9
9811,12.0
9813,9.5
9814,27.6
9815,-7.2
9816,10.9
9817,28.4
9818,5.4
9819,23.0
9820,8.4
9823,15.4
9826,-12.4
9827,30.3
9832,24.6
9834,20.0
9835,5.7
9836,15.3
9837,32.7
9838,36.5
9840,3.8
9841,23.5
9842,19.5
9843,9.6
9849,9.6
9850,13.3
9852,6.3
9860,6.1
9862,18.5
9864,14.7
9866,8.1
9867,26.6
9868,20.1
9869,6.4
9871,26.3
9873,5.6
9874,10.4
9875,21.0
9877,24.9
9879,4.0
9881,25.6
9883,3.0
9886,8.8
9887,9.9
9889,32.2
9891,9.5
9892,30.5
9893,-2.1
9894,15.6
9895,17.5
9896,27.0
9897,31.7
9898,11.2
9899,26.8
9901,11.4
9903,27.8
9905,-9.8
9908,19.4
9910,23.7
9911,5.7
9912,4.9
9914,5.1
9915,16.0
9916,21.0
9917,36.5
9918,4.1
9920,32.8
9923,30.3
9925,5.7
9926,15.0
9928,-20.1
9929,32.3
9932,20.4
9933,24.3
9934,22.9
9939,5.5
9940,21.0
9941,3.7
9942,28.5
9945,22.7
9946,30.7
9948,29.8
9952,10.8
9953,4.2
9954,18.9
9955,27.9
9957,15.5
9959,15.5
9961,6.6
9963,3.0
9965,30.5
9966,33.0
9967,25.4
9969,5.2
9972,21.6
9973,-4.7
9976,4.2
9977,11.8
9978,6.7
9979,28.4
9984,9.0
9985,18.1
9986,-12.4
9987,25.3
9989,12.9
9990,19.6
9992,29.6
9993,32.9
9998,39.1
10000,9.3
10002,8.9
10005,15.8
10009,10.8
10010,23.9
10011,20.0
10012,23.1
10015,17.6
10017,31.2
10018,20.8
10020,9.2
10021,13.3
10022,19.3
10026,4.8
10030,12.7
10033,17.4
10034,-4.7
10035,28.7
10037,29.5
10040,26.7
10041,6.5
10042,29.3
10044,26.5
10045,5.9
10046,23.5
10047,-22.7
10048,30.8
10051,27.5
10057,32.9
10058,12.1
10059,16.9
10060,23.6
10061,29.0
10065,7.8
10066,31.0
10067,19.7
10069,22.7
10071,11.7
10072,6.6
10073,3.0
10076,28.2
10077,16.8
10078,22.0
10079,12.5
10080,30.3
10081,31.0
10082,5.3
10084,-4.7
10086,30.9
10087,9.4
10088,16.1
10089,28.5
10090,14.1
10092,14.4
10093,28.8
10094,8.6
10096,36.5
10100,5.2
10101,19.6
10103,31.9
10104,4.1
10107,22.1
10109,13.3
10110,12.0
10111,32.1
10113,22.7
10116,14.4
10117,26.5
10118,33.0
10121,8.1
10122,10.8
10123,22.2
10124,6.6
10125,11.5
10131,4.4
10133,24.3
10134,3.0
10136,5.5
10138,13.1
10141,12.9
10142,15.3
10144,22.9
10145,-17.5
10146,32.0
10149,8.6
10151,5.0
10152,19.4
10153,27.4
10154,13.1
10155,33.0
10156,8.3
10159,26.2
10163,22.7
10171,8.2
10180,25.2
10181,29.8
10182,3.1
10183,0.5
10184,22.0
10187,11.5
10188,24.6
10189,5.0
10190,24.2
10191,20.5
10192,20.9
10193,21.4
10194,18.5
10196,18.6
10197,30.4
10199,13.8
10200,14.7
10201,11.5
10203,20.1
10205,31.5
10207,-25.3
10209,9.6
10210,4.8
10211,14.1
10212,20.7
10214,21.9
10215,24.9
10216,16.0
10218,13.4
10219,22.9
10220,15.9
10223,15.1
10225,14.0
10226,26.3
10230,11.9
10231,7.4
10232,-4.7
10238,32.7
10240,16.4
10241,24.7
10244,16.7
10245,14.7
10246,-20.1
10247,7.0
10249,22.6
10251,15.2
10256,3.8
10257,14.5
10258,3.2
10259,23.6
10260,3.7
10261,4.3
10263,11.8
10266,33.0
10267,30.6
10271,8.2
10273,6.3
10277,9.7
10278,32.6
10279,14.3
10280,22.4
10282,31.8
10283,-2.1
10284,28.8
10285,10.8
10288,26.6
10289,18.4
10290,26.3
10295,36.5
10296,6.1
10297,3.2
10298,32.1
10300,32.4
10301,15.4
10302,19.2
10307,4.8
10308,8.2
10311,11.2
10312,32.2
10314,25.8
10317,17.6
10319,23.6
10320,19.1
10321,3.2
10322,15.2
10323,8.8
10324,24.6
10326,6.7
10329,29.1
10331,22.8
10332,3.0
10335,7.2
10339,7.3
10340,7.4
10342,8.2
10343,-7.2
10344,7.7
10347,3.4
10350,11.3
10351,12.8
10352,7.7
10353,8.8
10355,39.1
10357,33.0
10361,20.7
10362,11.9
10366,3.0
10367,5.8
10368,13.3
10370,24.8
10374,19.6
10376,16.6
10379,27.1
10381,10.8
10382,9.8
10383,29.7
10387,6.1
10388,6.5
10390,10.4
10393,3.0
10394,23.0
10396,27.8
10397,31.4
10401,12.4
10402,12.6
10404,-17.5
10405,26.4
10406,16.3
10408,7.4
10412,26.0
10413,18.9
10418,28.8
10420,6.9
10421,27.8
10422,26.7
10423,16.1
10424,6.5
10426,24.0
10427,22.9
10430,8.2
10436,31.7
10437,19.7
10441,4.2
10442,0.5
10444,25.8
10445,18.7
10447,3.9
10448,30.8
10451,3.5
10452,5.2
10453,29.8
10454,15.9
10459,6.1
10461,11.6
10464,29.0
10466,-25.3
10472,31.3
10475,10.3
10477,5.3
10479,18.5
10481,13.0
10485,25.8
10486,26.6
10488,18.3
10489,30.2
10490,30.9
10491,-4.7
10493,10.9
10494,17.1
10496,15.3
10498,16.6
10499,25.0
10502,21.9
10504,-17.5
10506,19.5
10507,8.3
10509,22.2
10510,23.2
10513,30.8
10514,9.7
10515,14.6
10518,28.8
10519,25.7
10521,17.9
10523,30.4
10525,22.3
10526,32.0
10527,23.2
10528,9.8
10529,19.7
10530,8.2
10534,26.2
10537,23.0
10542,0.5
10543,5.9
10544,27.7
10546,21.6
10550,30.1
10551,16.3
10553,23.6
10554,30.9
10555,30.1
10557,27.7
10558,15.1
10559,20.3
10561,12.6
10562,13.0
10563,12.7
10565,-17.5
10566,13.3
10571,17.8
10573,14.2
10579,15.9
10581,20.2
10583,23.9
10584,3.6
10586,25.8
10589,8.6
10592,-4.7
10597,29.8
10600,3.0
10602,15.6
10604,-17.5
10606,31.9
10608,20.0
10610,4.5
10611,11.9
10615,29.8
10616,18.6
10617,26.2
10618,27.0
10619,15.9
10620,14.3
10621,24.8
10623,14.7
10625,15.6
10627,10.2
10630,5.6
10631,16.6
10632,11.2
10634,16.3
10635,4.3
10636,15.0
10639,7.3
10640,15.4
10641,30.8
10642,-4.7
10644,15.5
10645,19.8
10646,12.0
10648,30.0
10649,4.8
10653,13.7
10654,39.1
10655,22.1
10658,18.4
10659,8.8
10660,24.7
10662,21.5
10663,7.8
10664,21.4
10665,14.9
10667,8.2
10669,11.1
10671,16.8
10672,28.1
10674,28.8
10676,8.4
10678,23.6
10681,27.1
10682,27.3
10684,18.9
10685,23.3
10686,10.2
10687,7.2
10688,10.5
10690,3.0
10691,9.4
10694,18.4
10701,-4.7
10703,26.0
10705,11.2
10706,16.6
10707,6.8
10708,6.3
10709,12.9
10713,10.4
10715,39.1
10723,29.2
10724,21.0
10726,12.8
10727,15.9
10728,13.1
10729,16.8
10730,28.4
10731,20.5
10732,3.9
10733,8.2
10735,18.0
10737,27.3
10739,10.8
10741,3.4
10744,11.3
10746,14.1
10747,4.8
10748,32.9
10749,9.4
10750,22.7
10751,21.6
10752,8.2
10753,13.1
10754,21.0
10755,13.8
10756,30.9
10757,28.4
10761,12.7
10763,-17.5
10766,19.1
10768,27.3
10770,18.8
10772,9.8
10773,11.4
10774,30.3
10777,26.2
10779,7.2
10782,16.1
10784,8.5
10788,29.5
10789,8.2
10794,21.5
10797,5.7
10798,7.7
10799,17.6
10801,0.5
10802,31.5
10808,21.0
10809,27.9
10810,3.8
10811,5.6
10812,21.0
10814,16.9
10818,30.8
10820,8.3
10821,6.6
10822,23.5
10824,-20.1
10829,20.7
10830,30.0
10831,14.5
10832,9.3
10834,28.8
10836,28.0
10838,18.5
10839,14.9
10840,32.6
10841,27.6
10845,25.5
10846,32.1
10847,6.6
10848,9.9
10849,7.7
10851,-2.1
10853,4.4
10854,18.9
10858,31.1
10860,13.7
10863,-17.5
10864,8.5
10866,4.4
10868,5.9
10871,20.6
10872,6.2
10873,10.2
10876,26.2
10878,10.3
10879,14.2
10880,9.8
10883,21.1
10885,5.5
10886,4.9
10888,4.7
10889,8.2
10895,3.7
10900,-2.1
10901,24.3
10903,22.4
10904,15.9
10905,14.3
10907,8.5
10913,36.5
10915,13.2
10917,24.5
10919,23.3
10922,24.0
10923,4.9
10925,25.2
10926,8.2
10927,13.6
10928,21.0
10931,3.1
10932,16.5
10936,32.9
10937,21.0
10940,27.4
10944,7.3
10948,3.0
10949,3.0
10951,26.8
10955,13.3
10958,27.1
10960,-7.2
10962,9.5
10966,25.3
10972,5.5
10973,39.1
10974,14.6
10975,21.8
10976,17.0
10977,26.5
10978,26.1
10979,11.5
10982,14.3
10986,15.9
10991,16.2
10992,11.6
10993,10.4
10995,3.4
10996,25.2
10997,21.4
10998,10.8
10999,31.3
11000,13.6
11001,23.3
11004,24.0
11005,6.1
11006,5.4
11007,16.5
11009,18.0
11011,3.0
11015,32.1
11018,24.3
11020,13.2
11021,13.3
11022,-15.0
11023,22.8
11025,22.4
11026,25.8
11028,5.0
11029,3.8
11031,20.3
11032,19.6
11035,28.8
11037,27.6
11040,22.4
11042,17.3
11045,4.6
11048,8.2
11050,22.9
11053,26.9
11054,21.7
11060,0.5
11061,7.7
11067,10.4
11068,23.3
11069,14.7
11070,21.8
11071,21.0
11072,23.4
11073,16.3
11074,14.6
11080,27.8
11083,-22.7
11084,22.0
11085,9.1
11088,10.4
11090,7.5
11092,23.5
11093,6.7
11095,13.7
11097,18.5
11100,7.7
11101,29.1
11102,14.4
11104,22.1
11106,24.6
11108,22.4
11109,14.0
11110,-4.7
11111,9.6
11116,17.9
11117,5.5
11121,28.4
11122,-17.5
11124,21.2
11127,8.8
11129,4.2
11130,31.2
11132,10.3
11136,28.8
11137,27.9
11138,26.2
11141,10.4
11142,25.6
11144,19.9
11145,23.9
11146,29.2
11147,24.1
11148,10.8
11151,5.2
11157,7.3
11160,-7.2
11161,16.1
11162,21.0
11163,21.8
11164,28.5
11166,14.4
11170,9.3
11172,39.1
11175,32.1
11177,25.6
11179,19.1
11181,10.7
11186,15.9
11188,17.7
11189,19.6
11190,27.0
11193,17.9
11195,13.3
11196,5.1
11198,8.2
11200,32.6
11202,29.9
11203,30.6
11204,7.2
11206,5.8
11207,26.4
11209,-4.7
11212,23.0
11213,3.9
11214,14.6
11215,13.6
11221,24.0
11222,-17.5
11223,14.8
11224,8.5
11225,16.4
11226,26.8
11227,9.6
11228,29.6
11232,4.9
11235,26.2
11237,7.3
11240,8.5
11244,11.4
11248,5.6
11250,31.3
11254,9.6
11255,27.2
11259,-2.1
11261,10.5
11265,31.5
11266,14.0
11270,14.8
11271,30.9
11272,39.1
11274,14.6
11276,17.1
11280,15.3
11283,18.9
11284,10.8
11285,18.3
11289,20.7
11290,7.8
11292,11.4
11296,15.9
11297,27.1
11298,11.6
11299,14.0
11300,6.6
11301,12.2
11302,21.8
11303,12.4
11304,31.8
11306,20.4
11307,32.1
11310,-4.7
11311,15.6
11312,14.5
11313,30.9
11318,28.8
11322,-20.1
11324,7.3
11326,23.2
11329,29.0
11330,26.0
11331,25.5
11332,29.3
11333,24.3
11334,8.4
11335,26.2
11336,31.3
11338,25.2
11339,24.1
11340,21.4
11342,20.5
11346,9.5
11347,3.0
11348,23.5
11349,11.1
11352,7.2
11353,6.9
11357,6.3
11359,-4.7
11363,16.1
11365,26.5
11368,14.1
11370,3.1
11371,41.6
11374,7.4
11378,8.9
11380,29.8
11382,16.8
11384,13.3
11387,32.5
11388,23.7
11390,28.6
11391,23.0
11394,24.0
11395,11.6
11396,13.3
11397,13.3
11398,17.8
11399,20.0
11401,28.7
11402,7.1
11403,6.5
11406,18.6
11409,-2.1
11417,23.9
11418,4.6
11421,-20.1
11428,3.7
11429,9.9
11430,21.3
11432,7.0
11435,23.6
11437,11.8
11441,19.7
11444,28.2
11447,31.3
11448,0.5
11450,31.4
11451,26.2
11454,8.8
11457,22.4
11458,29.4
11459,-7.2
11460,23.8
11461,30.8
11462,24.0
11465,11.1
11466,4.9
11468,30.7
11469,17.6
11470,26.0
11471,39.1
11472,16.4
11473,14.9
11475,15.2
11477,9.6
11478,7.2
11479,28.9
11481,32.4
11484,13.3
11491,18.6
11493,9.0
11496,10.8
11497,6.4
11498,32.7
11501,29.5
11504,27.8
11505,3.8
11507,31.5
11509,5.6
11510,4.5
11511,29.6
11516,23.3
11517,11.8
11519,30.5
11521,-17.5
11527,6.8
11528,27.5
11533,26.2
11534,28.8
11535,29.1
11536,9.1
11537,32.8
11538,9.4
11540,28.5
11542,23.3
11544,14.4
11545,31.4
11546,8.2
11548,18.3
11550,31.2
11554,23.7
11556,21.2
11557,0.5
11558,18.0
11560,25.2
11566,5.6
11568,9.2
11569,21.0
11571,3.3
11574,13.1
11576,23.3
11580,21.2
11582,-22.7
11583,11.6
11584,16.0
11585,30.5
11586,7.0
11587,19.9
11592,14.1
11595,15.9
11596,15.6
11597,20.0
11598,28.0
11603,6.4
11604,8.6
11606,10.8
11607,14.1
11608,-2.1
11610,29.0
11613,30.2
11615,30.9
11616,14.2
11617,27.7
11618,32.1
11619,29.2
11620,-17.5
11623,5.3
11628,30.0
11629,11.8
11630,6.3
11633,28.8
11635,13.3
11645,30.0
11646,5.6
11648,24.5
11650,29.8
11651,22.3
11652,19.2
11656,4.5
11657,31.5
11658,-2.1
11659,25.0
11660,20.3
11662,25.7
11664,25.1
11666,11.6
11668,22.1
11670,36.5
11672,4.8
11678,4.8
11680,10.3
11682,10.8
11683,13.5
11686,14.5
11687,18.3
11690,5.3
11692,9.4
11695,15.9
11696,12.9
11699,18.7
11702,22.6
11703,11.2
11706,22.4
11708,-4.7
11709,17.3
11711,16.7
11712,13.6
11713,4.5
11714,4.3
11716,22.2
11717,6.1
11720,-20.1
11721,15.1
11723,30.9
11724,14.4
11725,16.4
11726,17.6
11727,27.5
11728,19.5
11731,4.1
11733,31.9
11734,26.2
11740,21.2
11741,7.6
11746,5.6
11749,16.9
11750,30.4
11751,6.1
11752,29.9
11753,18.8
11754,19.8
11755,24.1
11756,17.5
11757,-4.7
11759,6.1
11760,5.8
11761,14.0
11768,30.8
11769,39.1
11770,15.7
11771,27.0
11776,32.3
11777,6.4
11780,20.1
11783,13.3
11786,17.1
11787,27.9
11788,16.2
11790,20.4
11795,15.9
11796,24.4
11802,9.1
11804,9.0
11805,15.4
11807,-4.7
11810,17.3
11811,4.3
11813,12.6
11814,3.8
11815,32.1
11816,19.1
11819,14.2
11820,-20.1
11822,10.7
11823,22.3
11824,5.0
11826,13.4
11828,12.8
11829,24.2
11831,19.4
11832,10.4
11833,26.2
11834,31.6
11837,32.6
11840,20.4
11841,20.8
11846,3.0
11847,25.8
11848,7.9
11849,7.8
11852,15.0
11854,7.3
11857,-4.7
11858,17.0
11861,26.3
11862,17.5
11865,19.8
11866,5.0
11868,12.9
11870,39.1
11872,27.4
11873,30.9
11874,15.8
11877,17.5
11878,29.1
11880,3.1
11881,29.2
11882,15.9
11883,9.1
11884,7.5
11888,18.5
11889,9.1
11892,30.0
11894,13.3
11895,16.9
11896,17.4
11898,14.5
11899,20.8
11901,27.3
11902,9.7
11903,12.5
11908,-2.1
11911,22.1
11912,27.3
11915,24.3
11916,7.9
11917,6.8
11919,18.5
11920,-20.1
11921,31.3
11932,15.8
11933,23.6
11934,32.0
11935,3.1
11939,19.3
11941,27.5
11942,31.2
11943,3.2
11945,3.0
11947,30.5
11952,30.7
11953,6.8
11954,24.7
11956,3.2
11957,-7.2
11959,16.7
11967,27.9
11969,39.1
11970,19.7
11971,24.5
11973,8.0
11978,17.5
11979,17.3
11982,15.9
11984,16.7
11985,25.4
11990,25.7
11991,6.6
11992,25.8
11995,10.8
11998,11.8
11999,12.6
12000,23.8
12001,17.4
12003,18.1
12006,14.7
12007,5.6
12008,3.0
12009,21.1
12010,3.3
12012,30.2
12014,7.4
12016,4.4
12017,7.2
12018,-17.5
12019,28.7
12020,7.2
12023,11.9
12026,11.7
12028,9.5
12031,23.3
12032,28.8
12034,4.6
12035,25.2
12037,17.5
12038,27.6
12039,22.9
12042,32.6
12043,5.8
12044,21.6
12045,8.2
12047,30.8
12048,24.4
12050,15.8
12052,6.6
12053,20.4
12056,0.5
12058,21.9
12059,6.3
12060,13.9
12065,21.3
12066,13.5
12067,21.0
12068,15.0
12069,26.1
12070,15.2
12071,4.2
12072,21.3
12073,23.4
12079,18.7
12080,-20.1
12082,10.0
12083,11.6
12087,11.0
12091,3.5
12093,15.9
12095,24.4
12096,7.6
12097,31.1
12099,28.2
12101,31.3
12102,32.6
12103,14.4
12104,24.4
12106,-2.1
12109,8.9
12111,16.8
12112,9.0
12114,23.8
12115,6.8
12116,5.6
12119,-17.5
12120,5.3
12124,10.8
12125,32.5
12126,24.1
12130,16.8
12132,28.8
12133,13.9
12137,11.5
12139,23.2
12141,15.6
12142,25.9
12144,8.2
12145,13.0
12148,26.7
12155,0.5
12156,20.6
12158,5.5
12161,31.3
12163,4.1
12164,24.1
12167,26.2
12168,4.3
12171,14.9
12173,27.9
12174,7.5
12177,3.3
12180,-12.4
12182,18.1
12183,7.0
12185,13.5
12188,20.2
12193,15.9
12194,9.3
12195,10.8
12199,17.1
12200,13.1
12206,-4.7
12208,16.7
12210,19.7
12212,28.6
12214,9.6
12217,11.7
12218,-20.1
12219,18.0
12221,9.2
12224,17.8
12225,5.7
12229,8.6
12230,11.5
12231,26.2
12238,15.1
12239,20.1
12243,27.5
12244,5.6
12247,14.5
12252,32.1
12253,24.3
12254,30.7
12256,-2.1
12259,32.5
12260,14.6
12261,11.5
12263,28.0
12264,27.4
12266,3.7
12268,39.1
12270,9.2
12271,31.3
12272,31.5
12273,23.8
12275,27.5
12279,15.2
12280,13.3
12282,13.9
12284,26.4
12285,7.3
12287,14.8
12289,13.0
12290,28.7
12292,20.8
12293,15.9
12294,8.0
12297,24.6
12303,23.1
12306,-4.7
12309,11.7
12311,4.2
12315,4.0
12318,-20.1
12319,29.4
12320,23.3
12321,7.2
12326,19.4
12327,22.9
12328,5.6
12331,23.0
12332,23.6
12334,14.3
12339,3.5
12344,3.0
12345,5.6
12346,3.7
12350,26.0
12353,11.4
12355,-4.7
12356,27.7
12357,17.9
12358,6.4
12360,31.6
12361,9.1
12362,4.7
12363,22.3
12365,24.8
12367,39.1
12372,32.7
12376,12.6
12377,15.6
12381,13.3
12382,22.7
12383,9.5
12387,20.9
12388,25.9
12390,29.9
12391,27.4
12393,13.3
12397,5.7
12400,4.7
12401,24.7
12402,20.7
12405,0.5
12407,18.8
12408,20.9
12410,10.0
12411,19.6
12412,18.6
12413,24.8
12414,27.3
12417,-15.0
12420,12.3
12427,27.7
12428,32.0
12430,31.3
12431,8.2
12435,22.3
12436,31.5
12437,13.1
12439,31.6
12441,4.9
12443,10.8
12448,19.3
12450,31.3
12455,-4.7
12457,25.7
12458,21.7
12461,4.5
12463,25.2
12464,4.5
12465,10.9
12467,9.6
12468,39.1
12470,16.3
12473,15.7
12476,10.3
12478,15.5
12479,8.1
12480,15.9
12481,30.5
12482,3.7
12483,26.7
12485,5.5
12488,32.6
12490,23.2
12492,10.8
12493,15.9
12495,5.0
12497,28.6
12499,29.0
12500,20.2
12502,26.4
12504,29.8
12505,32.4
12506,5.6
12509,26.1
12512,28.4
12513,29.2
12515,30.3
12517,-17.5
12518,9.6
12520,32.8
12522,28.9
12525,5.6
12529,32.4
12530,28.8
12531,23.4
12533,31.4
12534,23.2
12535,25.3
12538,3.3
12539,21.4
12540,17.9
12542,8.2
12547,9.1
12550,16.4
12553,18.1
12554,0.5
12555,32.4
12557,5.8
12559,20.5
12561,6.7
12562,12.3
12563,23.0
12565,23.6
12566,21.2
12567,17.2
12572,15.2
12573,28.9
12574,22.4
12578,-20.1
12579,25.7
12580,6.1
12583,27.4
12584,15.8
12585,23.7
12587,5.9
12588,17.9
12589,14.9
12591,29.9
12592,15.9
12593,22.7
12594,19.3
12595,31.7
12596,15.3
12597,10.1
12600,19.3
12601,30.2
12602,23.0
12603,3.7
12604,-2.1
12606,24.9
12610,14.9
12611,26.3
12612,22.2
12614,16.8
12616,-17.5
12622,15.0
12623,20.8
12624,8.5
12625,16.0
12626,16.3
12630,28.8
12632,27.9
12633,18.4
12636,20.1
12638,23.6
12641,16.4
12642,14.9
12643,8.2
12645,31.5
12647,32.7
12649,12.7
12651,8.6
12653,30.5
12654,0.5
12657,21.1
12663,29.8
12664,19.1
12665,26.2
12666,21.3
12667,16.9
12668,20.4
12670,10.3
12672,12.5
12676,19.1
12678,-9.8
12679,7.1
12681,13.2
12686,17.3
12688,16.9
12690,26.2
12694,16.0
12696,32.2
12701,28.1
12702,5.6
12703,14.4
12704,3.7
12709,28.2
12710,30.4
12715,-4.7
12717,14.1
12719,25.3
12720,3.7
12722,3.9
12724,5.2
12725,24.3
12727,41.6
12731,31.1
12732,6.7
12733,16.2
12734,29.8
12736,26.4
12737,12.9
12738,19.5
12739,15.9
12740,8.7
12743,5.1
12744,27.7
12745,20.7
12746,31.5
12751,13.3
12753,13.6
12755,14.9
12758,27.0
12759,19.0
12760,16.2
12761,22.4
12762,28.2
12763,12.3
12764,3.0
12765,15.9
12766,4.7
12770,22.5
12771,26.2
12773,3.1
12774,21.1
12776,-15.0
12780,10.9
12781,20.8
12784,22.2
12787,18.7
12789,28.8
12792,16.4
12793,28.1
12794,17.7
12795,22.2
12796,32.8
12799,21.8
12800,22.3
12801,26.2
12802,8.2
12805,20.7
12806,3.5
12808,6.1
12809,29.3
12810,13.2
12811,3.4
12813,0.5
12818,22.3
12821,14.7
12822,21.8
12823,17.8
12824,21.0
12830,8.1
12832,25.6
12833,3.7
12834,22.8
12835,21.0
12836,-22.7
12839,7.5
12840,8.4
12841,9.8
12845,8.7
12846,21.1
12847,27.6
12848,22.0
12851,18.5
12852,3.5
12853,8.0
12856,4.3
12857,26.5
12858,18.0
12860,8.9
12862,31.2
12863,-2.1
12865,27.4
12866,26.6
12867,30.1
12869,22.5
12870,15.7
12871,10.8
12872,27.1
12873,16.5
12874,10.2
12875,-17.5
12876,31.4
12879,25.0
12882,11.6
12885,3.7
12887,27.3
12889,28.8
12891,17.8
12893,26.5
12896,5.8
12897,22.3
12898,11.3
12899,14.7
12901,8.2
12902,22.9
12903,20.9
12908,30.0
12911,23.3
12912,30.2
12913,3.0
12914,10.7
12917,24.6
12924,26.2
12925,19.3
12927,17.8
12928,9.2
12929,22.4
12930,10.6
12931,14.2
12934,10.6
12935,24.7
12936,11.4
12937,-15.0
12938,22.7
12939,29.9
12940,32.3
12942,22.9
12943,15.6
12945,30.8
12947,18.4
12950,18.5
12960,23.0
12961,29.2
12962,-4.7
12963,18.2
12966,26.6
12968,19.8
12969,28.7
12970,22.8
12971,30.8
12972,22.6
12974,31.3
12975,21.9
12976,-20.1
12979,28.6
12980,28.0
12983,9.5
12984,32.4
12985,27.9
12986,18.5
12987,10.2
12989,26.2
12990,3.9
12991,22.9
12993,16.8
12995,13.9
12997,17.1
13000,30.7
13001,8.2
13003,30.0
13004,11.7
13008,7.8
13012,0.5
13016,29.5
13017,15.3
13021,27.1
13023,19.8
13024,28.8
13028,22.7
13031,22.5
13033,12.0
13036,-9.8
13040,29.1
13041,24.9
13043,32.9
13047,23.7
13049,23.6
13050,29.0
13051,4.0
13056,3.7
13057,24.7
13058,12.2
13060,27.0
13062,3.0
13063,13.8
13066,24.6
13068,20.9
13070,19.0
13071,15.0
13073,-4.7
13074,8.0
13075,27.7
13077,4.5
13078,8.9
13083,8.2
13084,32.6
13085,39.1
13091,21.1
13096,8.9
13097,15.9
13098,4.4
13099,17.0
13101,9.8
13103,25.1
13105,30.2
13109,28.3
13111,13.3
13113,20.7
13114,11.1
13115,26.7
13116,13.4
13121,21.9
13123,10.8
13125,23.6
13128,10.3
13129,30.8
13130,4.9
13132,7.1
13133,19.8
13134,13.5
13135,-22.7
13138,13.6
13140,23.3
13141,23.7
13144,22.1
13147,12.0
13149,21.0
13151,13.3
13153,22.7
13156,31.8
13158,5.8
13160,9.3
13161,0.5
13162,9.8
13163,4.9
13164,30.3
13167,20.9
13169,26.2
13173,-4.7
13175,23.6
13179,23.5
13182,27.7
13183,25.5
13185,21.6
13186,39.1
13189,28.0
13192,12.9
13195,5.4
13198,18.5
13206,24.6
13209,30.2
13210,10.8
13219,6.4
13220,10.2
13221,13.6
13222,15.9
13224,3.9
13226,32.8
13227,8.0
13228,13.7
13231,29.5
13232,27.5
13233,7.5
13235,-25.3
13238,16.0
13239,23.3
13241,30.2
13245,27.2
13246,13.3
13248,23.8
13249,18.5
13251,18.7
13254,17.9
13258,18.9
13259,19.6
13260,23.3
13261,0.5
13262,13.5
13264,13.3
13268,5.4
13270,22.0
13272,15.9
13273,-7.2
13275,4.2
13279,21.1
13281,30.3
13282,5.4
13283,10.0
13285,39.1
13286,5.8
13287,17.3
13288,30.1
13291,12.1
13292,27.9
13294,12.4
13295,23.5
13296,23.7
13297,15.9
13298,24.0
13301,30.7
13305,15.5
13306,17.2
13307,19.3
13308,6.2
13309,16.7
13310,8.2
13318,10.4
13321,10.5
13322,-4.7
13325,5.9
13333,28.3
13334,-20.1
13335,28.4
13336,23.0
13338,27.9
13340,14.2
13342,15.7
13344,24.7
13346,29.1
13347,26.2
13349,8.0
13350,15.8
13352,29.5
13353,8.2
13356,15.7
13358,18.4
13360,8.2
13365,18.8
13366,18.3
13371,26.5
13372,-2.1
13373,16.3
13374,7.8
13375,20.7
13381,31.0
13382,15.7
13384,39.1
13385,10.0
13388,21.1
13393,15.9
13396,13.3
13397,3.6
13399,28.3
13401,30.7
13404,20.9
13409,13.3
13410,31.5
13411,16.1
13412,17.8
13413,4.8
13414,13.1
13415,24.4
13417,24.6
13420,27.6
13421,-4.7
13424,19.2
13425,30.5
13426,6.8
13427,23.3
13428,24.7
13429,16.2
13432,23.3
13433,-20.1
13435,6.0
13436,8.2
13437,25.8
13439,11.4
13440,9.9
13444,26.3
13445,30.6
13448,23.6
13449,18.9
13450,4.2
13453,18.1
13455,28.5
13460,3.0
13464,5.7
13466,11.8
13468,7.6
13469,7.4
13471,-2.1
13476,21.2
13480,10.3
13481,11.9
13483,4.4
13484,39.1
13489,23.4
13490,19.6
13491,26.6
13493,10.1
13494,10.4
13495,7.0
13496,13.3
13498,13.9
13502,14.1
13507,14.4
13508,8.5
13509,13.3
13510,21.3
13511,6.3
13512,12.9
13513,20.7
13518,25.5
13519,21.9
13521,3.0
13525,8.8
13527,5.6
13529,28.5
13530,9.1
13533,-15.0
13537,12.0
13538,16.1
13539,21.5
13543,9.8
13544,26.9
13546,31.3
13547,29.6
13548,23.6
13550,28.7
13554,22.9
13558,8.2
13560,20.6
13561,17.5
13567,23.3
13569,6.2
13571,3.0
13572,3.5
13574,7.4
13575,20.5
13576,31.5
13578,31.1
13579,21.1
13582,18.5
13583,14.7
13586,26.5
13588,13.2
13589,4.9
13591,16.6
13594,-25.3
13605,28.7
13607,18.5
13609,18.3
13610,28.3
13611,7.2
13613,21.4
13616,25.3
13617,24.9
13619,17.7
13620,-2.1
13624,27.6
13625,7.7
13629,5.9
13630,19.5
13632,-17.5
13637,14.9
13640,30.0
13641,26.6
13642,16.3
13643,23.4
13645,16.1
13646,28.8
13647,17.5
13649,26.2
13650,13.8
13652,19.9
13653,23.5
13654,17.6
13656,16.3
13657,11.8
13659,8.2
13661,28.5
13662,25.2
13665,28.2
13666,5.4
13667,28.9
13668,4.7
13669,11.2
13670,3.0
13671,4.5
13676,27.3
13681,23.6
13683,8.3
13684,6.9
13685,22.4
13686,25.3
13687,18.6
13690,19.8
13693,-17.5
13695,19.6
13696,4.0
13697,9.4
13699,31.2
13701,22.1
13702,29.4
13706,8.1
13708,18.5
13710,12.5
13712,15.0
13713,25.8
13717,4.4
13719,22.5
13720,-4.7
13721,4.4
13725,3.3
13726,26.4
13727,26.7
13731,11.2
13732,-17.5
13734,23.5
13735,16.8
13738,13.4
13739,21.8
13744,19.1
13745,24.7
13746,28.8
13758,5.6
13762,10.2
13763,15.7
13765,18.1
13766,4.3
13768,29.7
13769,27.9
13770,0.5
13771,23.0
13772,16.4
13773,5.2
13775,29.1
13776,12.4
13777,10.3
13782,26.2
13787,11.4
13788,4.8
13790,19.4
13791,7.8
13792,3.1
13793,10.1
13794,-9.8
13799,22.7
13800,8.1
13801,26.9
13806,23.6
13809,8.2
13811,26.1
13812,25.2
13813,23.6
13815,5.3
13816,25.6
13817,14.6
13818,3.0
13819,6.6
13820,26.4
13827,15.3
13828,15.5
13830,-4.7
13831,3.3
13832,19.1
13833,23.3
13835,23.4
13837,22.5
13838,24.0
13840,32.7
13841,25.1
13843,41.6
13844,21.0
13846,17.0
13847,18.3
13850,24.2
13852,22.4
13855,15.9
13857,15.9
13858,8.5
13859,4.3
13863,13.6
13864,5.4
13865,24.0
13867,6.0
13868,13.3
13869,4.5
13872,17.2
13874,3.3
13875,6.4
13876,10.2
13878,19.8
13880,8.2
13881,29.1
13882,3.8
13883,22.6
13887,19.0
13888,21.2
13891,-15.0
13894,6.1
13896,9.5
13897,3.2
13899,14.1
13900,25.9
13903,29.5
13905,28.8
13906,20.5
13909,5.4
13912,10.9
13913,22.3
13915,13.9
13916,31.0
13918,8.2
13921,15.6
13924,17.2
13927,21.5
13928,13.3
13929,3.0
13930,14.7
13931,6.4
13934,8.6
13936,15.8
13937,5.3
13938,16.2
13940,23.6
13943,25.0
13946,27.3
13949,23.6
13950,23.3
13952,18.0
13953,-20.1
13954,25.5
13957,28.4
13961,10.2
13964,13.6
13965,6.2
13966,21.0
13967,25.3
13968,25.9
13970,14.5
13972,26.3
13973,19.3
13976,31.2
13978,14.2
13979,-2.1
13980,17.8
13982,16.8
13984,8.9
13985,28.4
13987,18.7
13990,25.4
13991,-15.0
13992,27.7
13993,4.4
13994,24.9
13998,9.5
14003,22.7
14004,24.5
14005,26.2
14007,31.7
14008,23.0
14011,31.8
14014,12.1
14017,8.2
14018,26.6
14019,29.6
14021,8.3
14022,15.7
14023,24.8
14026,3.0
14028,0.5
14029,31.5
14032,6.3
14039,27.2
14041,28.8
14042,15.5
14043,5.9
14047,11.9
14051,21.8
14052,6.1
14053,-12.4
14054,8.6
14059,18.3
14060,6.4
14063,14.9
14066,15.9
14067,19.0
14068,15.6
14070,29.6
14072,15.5
14073,17.4
14075,28.3
14076,14.6
14077,14.3
14078,-4.7
14080,32.3
14083,14.6
14088,18.3
14089,17.5
14090,3.7
14091,-20.1
14092,14.3
14095,19.8
14096,31.8
14097,3.1
14102,11.3
14103,9.6
14104,23.5
14105,26.2
14106,30.6
14107,9.8
14109,24.9
14113,23.7
14114,5.4
14116,13.3
14117,5.6
14120,32.3
14123,25.4
14128,7.3
14129,-2.1
14130,31.6
14131,32.6
14135,20.8
14136,22.8
14141,39.1
14142,8.0
14145,31.1
14146,14.5
14150,20.9
14153,13.3
14155,11.4
14157,4.3
14160,10.9
14162,14.3
14163,31.1
14164,7.4
14166,15.9
14174,5.8
14175,19.3
14176,8.1
14177,18.4
14179,-7.2
14181,11.4
14183,6.7
14184,8.8
14191,-20.1
14193,5.6
14194,6.4
14198,23.9
14199,26.2
14200,31.4
14204,23.6
14206,22.6
14208,28.4
14209,17.4
14210,23.3
14212,18.8
14213,24.9
14217,3.0
14218,28.1
14219,18.6
14221,10.6
14222,20.3
14225,29.8
14227,20.4
14228,-2.1
14229,16.5
14233,21.0
14234,12.5
14235,30.9
14236,7.0
14241,41.6
14242,17.7
14245,6.3
14246,19.4
14249,15.3
14254,15.9
14255,13.1
14256,15.5
14257,18.5
14259,5.8
14264,21.6
14265,22.9
14266,13.3
14267,32.8
14269,29.7
14270,3.3
14271,5.3
14272,9.3
14273,27.0
14274,28.6
14276,29.0
14277,12.4
14278,0.5
14280,28.8
14285,5.8
14286,15.2
14288,27.9
14289,-12.4
14290,8.0
14291,16.8
14293,31.7
14294,28.0
14295,16.5
14296,8.3
14297,29.0
14301,15.4
14303,15.6
14304,28.8
14305,12.2
14306,15.3
14307,17.6
14308,19.8
14310,5.1
14311,20.2
14312,29.7
14313,18.8
14314,23.7
14315,20.7
14316,10.8
14317,20.4
14323,20.6
14326,14.8
14328,-4.7
14330,32.3
14331,8.0
14332,4.4
14333,25.9
14334,22.3
14336,3.4
14338,5.3
14340,32.7
14341,39.1
14343,13.4
14344,26.9
14345,23.9
14346,6.4
14347,9.7
14348,32.5
14349,8.8
14350,30.6
14353,15.9
14354,27.1
14355,10.3
14359,17.1
14361,28.8
14365,13.3
14366,12.9
14368,20.4
14370,25.6
14373,4.4
14374,23.7
14377,28.0
14378,10.3
14379,8.2
14380,23.2
14381,21.0
14382,25.5
14387,14.1
14389,26.3
14390,-15.0
14391,18.1
14392,13.3
14394,15.6
14395,32.0
14397,29.0
14401,23.4
14403,28.8
14405,30.5
14408,19.4
14411,27.9
14413,7.6
14414,28.5
14415,8.2
14417,33.0
14418,9.5
14419,22.0
14420,7.4
14421,12.7
14424,31.8
14425,13.3
14427,0.5
14430,16.1
14432,11.2
14434,28.0
14435,24.0
14438,8.5
14439,21.0
14448,19.7
14450,29.3
14451,-20.1
14454,21.9
14457,28.3
14458,30.1
14459,27.9
14463,28.0
14465,18.5
14469,29.0
14473,29.9
14477,-4.7
14479,30.1
14482,6.2
14487,24.1
14489,-17.5
14490,8.5
14491,8.6
14492,27.3
14493,6.6
14494,19.3
14503,28.8
14504,10.0
14505,20.9
14506,13.7
14510,5.9
14511,9.2
14512,26.2
14515,10.6
14516,8.2
14517,10.0
14518,12.4
14520,9.5
14522,4.6
14524,10.3
14525,29.8
14526,27.0
14527,0.5
14530,20.9
14532,18.6
14533,25.1
14534,26.3
14536,21.7
14538,26.2
14543,22.5
14547,15.9
14549,22.8
14550,13.9
14551,-9.8
14553,26.6
14555,19.2
14557,7.1
14558,11.3
14561,24.9
14563,26.2
14566,19.9
14570,25.5
14572,21.2
14576,0.5
14578,8.3
14581,6.2
14582,17.5
14583,26.3
14584,8.6
14587,-2.1
14589,22.5
14591,25.8
14592,5.8
14593,15.0
14595,4.9
14596,29.3
14600,39.1
14602,9.5
14603,21.7
14605,8.8
14606,15.9
14607,3.9
14608,23.8
14612,15.9
14615,6.6
14621,22.7
14622,24.2
14623,32.2
14624,13.3
14625,24.2
14626,8.4
14632,7.0
14634,8.1
14636,8.1
14637,28.5
14638,5.6
14639,11.1
14640,23.7
14642,18.8
14646,26.8
14648,24.7
14649,-15.0
14651,27.3
14654,4.8
14655,23.2
14657,10.4
14659,25.0
14660,16.0
14662,28.8
14664,12.3
14666,3.4
14668,29.7
14669,6.0
14670,26.7
14671,11.7
14672,8.0
14674,10.8
14675,25.8
14676,19.6
14680,28.6
14681,7.7
14684,32.6
14686,3.9
14687,-4.7
14690,23.8
14694,10.3
14696,28.1
14699,39.1
14700,14.0
14701,23.9
14703,12.2
14705,15.3
14712,15.9
14716,24.0
14717,31.1
14719,6.5
14722,25.1
14725,10.8
14730,15.8
14734,5.0
14736,13.1
14737,13.3
14739,32.7
14740,3.2
14743,27.1
14746,11.6
14747,12.3
14749,-22.7
14753,13.5
14754,21.6
14755,21.6
14757,4.9
14758,8.8
14760,4.2
14763,21.0
14764,12.3
14766,22.1
14767,12.0
14770,12.7
14772,5.8
14773,22.0
14775,4.7
14776,-2.1
14777,30.3
14781,8.4
14782,28.8
14783,23.0
14784,27.7
14786,5.1
14788,-15.0
14789,22.3
14790,12.5
14795,12.6
14798,11.0
14801,31.3
14802,25.5
14806,20.8
14807,8.3
14810,22.0
14812,8.2
14814,8.2
14816,17.4
14818,24.3
14819,16.0
14820,22.9
14821,33.0
14824,21.0
14825,3.0
14827,26.3
14829,20.1
14830,10.0
14837,18.5
14838,19.1
14840,5.8
14841,10.5
14848,28.0
14850,-25.3
14851,21.8
14852,19.3
14853,25.6
14856,21.3
14857,3.5
14858,21.6
14859,9.9
14862,26.8
14863,18.5
14864,6.8
14865,22.6
14866,28.8
14868,11.8
14871,14.4
14873,23.2
14875,-2.1
14876,18.4
14877,8.6
14878,15.3
14879,9.0
14882,12.0
14883,18.5
14885,21.1
14887,-15.0
14888,31.6
14891,10.7
14892,17.2
14894,6.1
14899,31.7
14900,18.8
14901,16.1
14902,28.8
14907,21.4
14912,24.9
14914,8.2
14916,18.2
14917,26.3
14919,13.9
14923,11.6
14925,0.5
14928,11.5
14929,24.8
14933,8.3
14936,31.3
14937,21.0
14946,31.3
14949,-17.5
14955,19.6
14956,13.3
14957,16.5
14962,18.5
14964,9.1
14967,27.6
14968,3.7
14970,28.9
14976,-2.1
14978,7.9
14980,25.8
14982,19.8
14985,30.1
14988,-17.5
14989,18.7
14991,21.6
14992,14.2
14996,11.2
14997,32.6
14998,17.4
15001,28.8
15002,21.9
15005,3.2
15007,20.1
15010,27.2
15013,8.2
15014,21.2
15015,31.8
15016,11.5
15020,9.3
15022,21.0
15025,0.5
15026,28.2
15027,17.1
15028,12.8
15032,10.8
15036,6.7
15037,28.8
15038,19.5
15041,9.0
15042,4.1
15045,20.8
15046,20.7
15047,11.2
15048,19.5
15049,-12.4
15052,31.5
15055,9.4
15056,11.2
15058,11.5
15060,24.9
15062,22.4
15063,15.9
15065,23.0
15067,18.5
15069,16.0
15070,16.5
15072,19.2
15073,20.4
15075,-4.7
15079,16.7
15083,15.3
15084,6.2
15085,24.0
15086,28.7
15087,-17.5
15088,3.7
15094,28.9
15095,28.7
15096,20.5
15098,5.6
15099,10.8
15101,26.2
15102,16.2
15105,5.5
15108,3.8
15110,25.8
15111,27.0
15113,10.8
15114,8.2
15119,31.5
15120,24.5
15122,31.4
15124,6.1
15125,-2.1
15126,14.8
15127,27.9
15128,15.6
15130,24.8
15131,3.0
15132,13.2
15133,19.3
15134,18.2
15135,31.3
15136,23.6
15137,39.1
15139,14.5
15142,22.9
15144,10.8
15147,29.6
15150,13.3
15151,23.5
15153,9.1
15154,23.8
15157,32.1
15161,14.0
15162,15.9
15166,29.6
15168,32.5
15169,20.3
15170,12.8
15171,29.5
15174,32.8
15175,-4.7
15179,11.3
15180,25.8
15182,3.5
15186,13.1
15187,-20.1
15188,15.3
15189,28.7
15196,20.3
15198,31.5
15199,17.5
15200,12.3
15201,26.2
15205,7.1
15206,24.4
15208,30.0
15209,30.0
15210,26.9
15212,16.0
15213,3.0
15214,17.1
15215,24.1
15216,20.6
15217,30.0
15221,27.0
15222,6.7
15224,-4.7
15225,31.8
15228,28.3
15230,12.9
15231,32.4
15232,23.5
15236,10.2
15238,39.1
15239,12.7
15245,24.2
15247,17.7
15249,25.3
15250,13.3
15252,25.7
15257,29.2
15258,12.0
15262,13.3
15265,32.8
15268,5.1
15269,15.3
15274,25.7
15275,0.5
15277,18.5
15278,11.6
15279,10.3
15284,25.5
15286,-12.4
15292,28.8
15295,29.0
15298,23.1
15299,28.8
15300,8.9
15305,18.4
15306,9.6
15307,24.6
15308,5.5
15310,26.1
15311,28.5
15312,13.3
15315,7.2
15317,19.5
15319,14.3
15320,13.0
15322,32.0
15324,21.3
15325,-4.7
15326,9.3
15328,25.8
15331,22.3
15334,18.1
15335,14.1
15337,41.6
15345,30.2
15347,30.1
15348,17.7
15349,15.9
15350,13.5
15351,14.3
15357,17.2
15358,29.7
15359,14.6
15360,15.4
15362,13.3
15363,4.5
15365,8.8
15367,15.7
15368,10.6
15370,23.4
15371,9.3
15372,20.9
15373,15.1
15374,26.4
15375,10.8
15376,14.3
15377,25.2
15380,10.3
15383,6.1
15385,5.2
15387,-22.7
15389,31.9
15391,8.9
15398,14.1
15399,23.4
15400,23.6
15402,5.7
15403,24.4
15404,25.3
15407,4.4
15408,29.5
15410,28.1
15413,3.0
15417,29.6
15422,12.0
15423,29.0
15424,-7.2
15425,16.8
15426,29.6
15428,8.2
15435,15.4
15436,7.1
15437,41.6
15438,10.4
15439,14.8
15442,19.1
15445,23.9
15446,18.3
15447,30.1
15450,15.9
15451,19.6
15452,29.6
15453,17.7
15459,17.9
15462,10.8
15469,26.5
15470,32.0
15471,28.8
15474,15.9
15478,21.4
15479,23.5
15481,22.5
15483,31.2
15484,28.2
15486,-25.3
15487,24.4
15488,7.2
15489,13.6
15490,8.7
15501,21.0
15502,25.5
15505,26.6
15506,29.3
15508,29.1
15511,31.9
15513,0.5
15516,26.5
15518,17.3
15520,17.0
15524,-7.2
15525,19.7
15529,11.4
15530,11.0
15534,7.5
15535,31.7
15537,41.6
15538,17.4
15539,17.0
15540,5.4
15542,20.9
15547,13.5
15548,11.9
15549,18.5
15551,5.3
15554,25.6
15556,26.0
15561,8.2
15565,22.6
15566,9.2
15567,21.7
15570,4.7
15571,4.0
15574,-4.7
15575,24.5
15577,20.1
15579,11.3
15580,4.0
15581,15.3
15582,15.0
15586,-17.5
15592,24.8
15593,7.5
15596,25.3
15597,24.7
15598,13.3
15599,26.2
15600,18.8
15601,31.8
15602,13.0
15603,22.7
15604,14.0
15606,13.3
15610,8.4
15611,5.6
15612,9.0
15613,23.3
15617,31.2
15623,-2.1
15624,15.9
15625,4.0
15628,23.5
15630,30.5
15631,25.9
15633,28.9
15635,4.1
15636,39.1
15638,17.0
15639,28.7
15640,20.1
15642,5.4
15644,4.8
15646,10.4
15647,12.2
15648,13.3
15649,32.7
15652,23.0
15655,27.7
15656,5.3
15660,21.0
15661,15.9
15666,26.0
15669,18.1
15670,20.7
15672,15.0
15673,-4.7
15678,12.4
15679,5.4
15680,19.4
15681,23.5
15682,12.5
15683,9.5
15684,31.8
15685,-20.1
15690,26.6
15691,11.3
15693,15.8
15694,12.4
15695,12.2
15696,16.5
15698,26.2
15701,30.7
15703,18.3
15706,25.9
15707,15.3
15708,17.6
15709,3.0
15710,24.6
15712,5.6
15713,25.0
15714,15.3
15716,23.1
15717,28.8
15718,28.0
15719,19.4
15720,7.4
15722,21.4
15723,-4.7
15724,25.2
15725,24.4
15728,14.1
15729,13.3
15731,21.0
15732,14.2
15735,39.1
15742,18.8
15744,21.6
15745,11.3
15746,7.9
15748,15.9
15749,10.0
15751,9.9
15752,24.9
15753,20.2
15755,8.6
15759,15.7
15760,13.3
15762,11.6
15764,3.5
15766,11.3
15769,17.4
15770,10.3
15772,19.1
15773,3.0
15777,8.2
15783,7.7
15784,-15.0
15785,10.6
15786,13.6
15791,9.5
15792,5.6
15798,31.3
15801,14.7
15808,4.0
15809,17.5
15810,10.8
15811,16.5
15812,10.3
15814,19.6
15817,28.1
15818,10.6
15819,25.0
15820,18.0
15821,8.0
15822,-4.7
15825,16.7
15828,28.9
15830,27.8
15831,3.1
15832,12.8
15833,10.9
15834,6.1
15835,30.9
15836,39.1
15839,25.4
15841,23.2
15843,30.5
15845,9.8
15848,15.9
15850,18.1
15851,22.4
15854,28.1
15857,32.8
15860,10.8
15863,19.1
15866,25.4
15867,24.0
15868,28.8
15869,15.4
15872,30.8
15873,10.8
15874,28.9
15876,17.4
15879,5.9
15884,5.7
15885,-22.7
15887,9.1
15888,14.0
15890,18.2
15891,8.6
15892,7.2
15894,18.4
15898,21.0
15902,8.9
15904,30.0
15905,32.1
15907,26.2
15911,0.5
15912,19.0
15914,5.4
15918,9.3
15919,21.7
15920,18.8
15921,19.1
15923,-7.2
15925,22.1
15926,23.8
15928,17.7
15935,41.6
15937,21.1
15939,13.3
15942,21.7
15943,21.6
15946,27.3
15947,18.5
15950,18.7
15952,24.2
15954,23.3
15955,32.2
15956,30.5
15957,32.1
15960,13.3
15962,19.6
15965,14.3
15967,13.8
15968,18.6
15969,29.6
15973,15.9
15976,29.0
15985,-22.7
15986,14.3
15987,13.4
15991,21.6
15998,21.0
15999,9.5
16000,9.2
16002,28.6
16005,20.6
16009,12.3
16010,25.9
16011,0.5
16020,20.2
16022,-7.2
16023,19.4
16025,24.5
16026,4.2
16029,4.7
16030,8.9
16031,19.0
16035,39.1
16038,27.6
16046,29.0
16048,18.5
16052,8.7
16053,6.8
16056,21.2
16059,27.5
16060,10.8
16062,12.4
16064,7.7
16065,23.7
16067,29.3
16072,21.0
16073,20.2
16074,25.3
16076,10.3
16078,25.9
16080,4.6
16083,20.6
16084,-20.1
16086,30.7
16088,8.2
16092,18.5
16093,7.6
16094,30.1
16095,11.9
16096,32.7
16098,21.0
16101,11.9
16102,15.0
16110,8.9
16111,-2.1
16112,5.5
16113,29.5
16115,13.7
16116,8.9
16117,4.6
16120,4.9
16123,-15.0
16124,9.7
16125,8.7
16128,27.3
16130,11.9
16135,16.5
16136,19.0
16137,28.8
16138,23.2
16139,6.0
16140,4.4
16145,33.0
16149,8.2
16155,25.2
16157,13.8
16160,0.5
16166,19.5
16167,22.9
16173,26.2
16175,12.4
16177,16.7
16180,25.2
16181,24.2
16183,10.1
16184,27.0
16185,-12.4
16186,12.8
16187,29.6
16189,6.6
16191,19.8
16193,32.2
16194,20.9
16197,5.9
16198,15.9
16199,15.2
16201,21.4
16203,30.1
16204,11.0
16207,7.6
16209,15.5
16210,-4.7
16211,23.5
16212,31.0
16213,30.5
16218,27.1
16223,-17.5
16224,3.7
16228,32.2
16232,30.5
16233,25.4
16234,32.5
16235,14.4
16236,21.5
16237,26.2
16239,3.5
16240,29.9
16241,29.6
16242,28.5
16243,24.8
16245,22.1
16248,7.8
16249,8.2
16250,10.5
16254,27.0
16255,6.7
16259,19.1
16261,0.5
16262,15.5
16264,18.1
16267,6.8
16269,23.6
16270,22.0
16272,28.8
16273,18.0
16275,30.8
16276,15.1
16277,22.5
16279,14.4
16284,-7.2
16287,21.5
16289,26.4
16291,31.6
16292,3.9
16296,23.6
16298,8.8
16300,11.1
16301,20.2
16302,31.0
16306,5.6
16307,3.1
16310,3.0
16315,13.4
16320,9.9
16321,-4.7
16322,22.9
16323,22.0
16324,30.7
16327,31.4
16329,13.6
16331,6.9
16333,41.6
16334,7.0
16335,21.8
16338,4.5
16341,9.0
16343,7.4
16345,4.4
16346,15.9
16347,22.4
16348,16.9
16351,28.4
16352,19.8
16353,21.5
16356,25.1
16357,10.6
16358,10.8
16361,8.7
16362,16.9
16367,6.7
16371,13.3
16372,21.3
16374,5.7
16377,13.0
16378,30.0
16379,27.3
16382,12.9
16384,-25.3
16385,32.9
16388,29.5
16390,27.1
16392,3.7
16393,30.9
16396,30.4
16397,21.0
16399,31.4
16403,15.0
16404,27.2
16405,4.3
16409,0.5
16410,19.6
16413,8.2
16414,31.1
16415,8.5
16416,3.4
16417,26.5
16418,28.4
16419,29.6
16420,-4.7
16422,10.9
16425,31.6
16428,15.0
16429,32.4
16430,32.0
16431,4.2
16434,39.1
16436,20.4
16438,10.7
16440,5.5
16441,18.1
16446,18.5
16449,24.9
16450,18.2
16451,16.1
16452,31.9
16453,10.8
16458,10.8
16459,4.1
16461,30.0
16462,12.9
16466,28.2
16468,15.9
16469,7.0
16470,18.4
16471,18.5
16472,17.8
16474,18.3
16475,18.3
16476,24.8
16482,14.4
16483,-25.3
16484,15.8
16485,32.5
16488,32.3
16489,21.7
16490,10.1
16492,9.2
16493,22.8
16495,4.6
16496,21.0
16497,22.4
16501,29.6
16505,7.1
16506,20.7
16507,29.5
16509,0.5
16511,32.8
16512,27.0
16514,29.0
16515,19.7
16518,3.3
16519,11.4
16521,-7.2
16524,27.9
16526,11.3
16529,25.6
16530,30.1
16531,5.4
16533,39.1
16537,20.3
16539,3.5
16541,18.3
16544,9.2
16545,18.5
16547,6.6
16549,24.6
16558,10.8
16559,10.7
16564,32.8
16565,20.6
16567,32.7
16569,12.7
16571,21.0
16572,10.4
16574,8.1
16575,24.5
16578,11.7
16583,-20.1
16589,5.2
16592,24.3
16595,6.7
16596,21.0
16598,16.8
16599,19.9
16601,4.4
16602,13.9
16604,12.2
16606,6.8
16607,10.2
16608,13.8
16609,-2.1
16611,5.8
16612,25.1
16614,17.2
16615,22.2
16617,27.6
16618,12.9
16621,-15.0
16623,9.6
16625,22.7
16626,14.8
16627,3.2
16629,19.7
16630,28.9
16634,25.8
16635,28.8
16636,15.1
16637,21.8
16638,25.4
16640,15.4
16641,27.0
16642,14.4
16648,8.2
16651,22.8
16655,20.8
16656,8.0
16658,26.2
16659,0.5
16662,31.2
16663,19.0
16664,8.6
16666,29.6
16667,18.8
16670,28.8
16671,7.9
16672,19.1
16678,3.0
16679,25.9
16683,-12.4
16685,18.8
16688,7.6
16689,14.2
16692,4.3
16693,29.9
16694,18.4
16695,15.8
16696,15.9
16697,24.8
16700,23.4
16703,28.0
16705,17.5
16706,15.3
16707,17.9
16708,3.6
16709,-2.1
16711,31.5
16713,11.4
16718,27.1
16719,9.6
16721,-17.5
16723,32.2
16725,25.0
16728,20.2
16729,27.9
16735,28.8
16741,17.2
16745,7.4
16747,8.2
16750,9.9
16751,22.1
16752,5.4
16754,17.3
16758,-2.1
16759,29.9
16760,23.5
16761,24.3
16763,21.0
16767,7.8
16771,18.1
16772,39.1
16773,21.7
16776,11.2
16777,24.3
16778,32.0
16779,5.6
16781,23.6
16784,13.3
16791,24.2
16792,11.7
16796,15.9
16797,18.8
16801,23.5
16803,32.5
16806,7.7
16807,16.3
16808,-4.7
16810,25.8
16813,28.2
16815,22.6
16818,26.7
16821,-20.1
16822,21.6
16826,15.7
16827,13.0
16829,11.0
16832,15.2
16835,26.2
16836,26.6
16841,5.2
16842,13.7
16845,22.2
16846,12.3
16847,5.6
16848,6.3
16849,15.1
16850,18.9
16851,15.8
16852,31.1
16853,3.2
16857,27.3
16859,-2.1
16862,20.0
16863,9.2
16869,25.1
16870,27.5
16871,39.1
16872,4.8
16873,6.3
16874,26.5
16876,28.1
16877,5.6
16878,25.1
16879,20.3
16882,22.6
16883,13.3
16884,7.7
16895,30.7
16896,15.9
16897,7.3
16900,18.7
16906,25.8
16907,26.8
16908,9.4
16909,0.5
16911,26.2
16915,21.0
16917,17.4
16919,15.3
16920,-12.4
16929,4.5
16930,21.9
16931,26.0
16933,33.9
16934,16.1
16935,23.8
16937,31.6
16940,27.1
16941,29.2
16943,32.1
16944,11.2
16946,10.8
16947,26.8
16948,8.9
16951,12.0
16953,3.2
16954,28.2
16955,13.0
16958,-4.7
16960,9.6
16961,25.4
16962,14.2
16964,29.4
16966,15.0
16968,32.6
16969,17.6
16971,39.1
16973,30.9
16977,12.8
16983,11.2
16984,15.9
16986,29.4
16987,13.4
16988,20.6
16989,29.8
16990,4.2
16993,29.7
16996,13.3
16998,17.5
17001,11.0
17003,25.4
17006,32.7
17008,10.8
17011,22.0
17012,7.1
17013,7.1
17015,21.9
17019,25.5
17020,-22.7
17025,14.9
17032,23.9
17034,26.8
17035,23.6
17039,21.7
17042,4.9
17043,21.0
17045,7.6
17047,0.5
17048,18.9
17050,32.4
17051,15.3
17052,25.2
17058,-4.7
17064,30.8
17067,7.6
17069,18.0
17071,39.1
17072,25.1
17073,8.1
17074,5.6
17076,29.4
17080,13.7
17081,12.6
17083,18.5
17086,29.6
17087,26.5
17088,28.2
17091,9.5
17092,10.4
17094,3.6
17095,10.8
17096,17.9
17102,13.2
17103,12.6
17107,7.2
17108,15.9
17111,30.4
17113,14.6
17114,15.5
17115,9.5
17117,21.2
17118,14.9
17119,22.2
17120,11.0
17121,-22.7
17122,25.5
17125,3.1
17129,19.8
17130,26.3
17131,3.7
17132,17.4
17133,13.3
17134,21.0
17135,23.0
17139,29.8
17145,23.9
17146,0.5
17149,31.1
17152,21.2
17155,4.9
17158,-7.2
17160,17.5
17161,14.1
17164,7.6
17165,23.3
17166,11.3
17167,5.9
17168,12.2
17169,26.4
17170,13.2
17171,41.6
17172,23.2
17174,15.9
17175,11.3
17177,19.2
17179,18.6
17180,23.2
17182,10.3
17183,18.5
17185,26.4
17187,13.1
17190,20.1
17191,11.2
17195,16.3
17196,8.2
17197,13.5
17199,26.4
17204,20.5
17207,-2.1
17209,4.1
17216,3.6
17219,-17.5
17221,12.8
17222,24.8
17224,10.9
17228,26.8
17229,9.3
17233,28.8
17235,28.1
17240,9.7
17241,26.0
17242,19.1
17243,22.7
17244,6.1
17245,28.8
17246,5.6
17247,27.0
17252,8.2
17253,7.2
17255,3.1
17257,-2.1
17258,20.5
17259,26.0
17262,28.8
17266,4.6
17267,15.1
17269,39.1
17270,31.5
17271,10.2
17274,29.0
17278,13.4
17279,13.8
17280,16.9
17282,13.3
17283,6.7
17285,4.5
17288,4.4
17293,6.7
17294,15.9
17296,13.0
17297,10.6
17299,16.6
17300,9.9
17301,11.6
17302,31.8
17304,10.2
17305,5.2
17307,-4.7
17311,29.8
17314,10.9
17315,19.1
17316,7.0
17318,13.6
17319,-20.1
17321,14.0
17322,31.9
17325,13.1
17329,10.6
17333,26.2
17342,9.7
17343,11.1
17345,3.0
17346,32.0
17347,22.0
17349,12.3
17353,14.8
17355,12.9
17356,-4.7
17357,22.5
17358,17.0
17363,21.6
17365,12.4
17368,10.1
17370,41.6
17375,7.3
17377,14.0
17379,14.2
17381,19.6
17382,15.9
17384,28.0
17386,23.2
17387,20.5
17388,32.0
17391,13.3
17393,25.4
17394,13.3
17395,12.0
17397,17.6
17398,30.8
17402,5.9
17403,15.3
17405,4.3
17406,3.0
17408,26.6
17410,30.3
17412,26.2
17413,10.9
17414,22.2
17416,26.3
17417,15.3
17418,-12.4
17419,10.2
17422,25.2
17425,22.7
17429,31.9
17432,31.3
17433,12.1
17435,3.1
17436,3.5
17437,6.1
17438,15.0
17439,20.8
17442,32.3
17443,22.0
17444,10.8
17447,5.9
17449,24.9
17452,17.8
17454,20.7
17457,-4.7
17458,24.6
17463,27.2
17464,23.8
17469,39.1
17472,32.2
17473,6.7
17474,13.5
17478,12.6
17480,13.2
17481,15.9
17482,4.3
17485,24.4
17486,18.0
17490,11.5
17491,24.4
17493,15.1
17494,13.3
17498,6.7
17499,3.8
17501,21.3
17502,14.6
17505,3.6
17507,10.8
17509,16.8
17511,21.5
17517,3.9
17518,28.4
17519,-22.7
17520,25.7
17521,16.1
17524,4.1
17525,14.5
17529,20.2
17531,22.4
17532,21.0
17534,20.2
17538,17.7
17539,16.0
17540,20.9
17542,31.3
17545,0.5
17548,12.4
17553,23.4
17554,14.9
17555,24.1
17556,-7.2
17557,6.3
17561,26.9
17562,20.3
17564,26.4
17565,22.9
17566,26.1
17567,30.7
17569,41.6
17570,15.7
17571,15.1
17575,10.5
17578,32.9
17581,26.7
17582,15.9
17584,17.6
17586,10.2
17591,29.4
17592,26.9
17594,10.8
17595,24.1
17596,20.8
17598,4.4
17600,4.7
17601,6.8
17602,19.0
17606,15.9
17607,9.4
17610,26.4
17616,32.0
17617,9.9
17618,-25.3
17619,13.4
17620,6.2
17621,8.8
17624,3.2
17625,11.2
17626,4.4
17627,17.0
17630,28.7
17631,7.9
17633,21.0
17638,22.1
17639,32.3
17640,9.8
17641,15.2
17643,23.2
17645,0.5
17647,9.8
17649,17.4
17653,26.2
17654,20.0
17656,-7.2
17658,16.2
17659,27.6
17660,4.9
17661,23.8
17662,18.6
17663,3.7
17668,24.1
17669,39.1
17671,28.6
17674,29.7
17678,3.3
17680,4.5
17681,18.5
17682,16.7
17683,24.6
17688,27.1
17690,26.2
17692,16.1
17693,10.8
17698,13.9
17702,27.4
17705,14.7
17707,23.6
17710,3.8
17713,8.2
17715,28.5
17717,8.4
17719,-17.5
17720,32.7
17722,15.5
17727,29.9
17728,17.1
17729,20.7
17730,10.9
17731,26.4
17732,18.5
17735,5.0
17737,29.6
17739,28.9
17742,18.7
17744,-2.1
17746,15.9
17747,20.5
17750,5.7
17753,6.8
17755,6.9
17756,8.9
17757,-17.5
17759,27.1
17760,5.3
17761,21.8
17762,8.0
17770,29.0
17771,28.8
17773,27.2
17776,5.5
17777,6.2
17778,17.7
17781,22.3
17782,20.0
17783,10.8
17787,32.4
17792,28.3
17793,27.3
17796,-4.7
17797,29.0
17800,14.8
17802,25.7
17803,12.6
17804,31.9
17805,21.9
17806,11.2
17807,30.4
17808,39.1
17809,24.0
17811,8.4
17812,23.6
17813,12.5
17818,11.6
17820,18.5
17825,5.3
17827,18.6
17828,26.9
17829,23.6
17831,23.0
17832,25.9
17833,10.8
17834,23.9
17835,5.6
17837,14.5
17838,16.5
17839,18.3
17840,3.5
17841,13.1
17842,4.7
17843,19.6
17844,22.4
17845,19.2
17846,21.0
17847,23.7
17853,9.5
17854,28.1
17855,24.7
17856,18.4
17857,26.4
17858,-22.7
17860,19.1
17861,29.9
17862,28.9
17863,31.2
17866,10.8
17867,23.1
17869,8.0
17870,31.4
17871,18.5
17874,10.8
17880,18.7
17884,0.5
17888,8.9
17893,12.7
17894,32.2
17896,-7.2
17898,30.0
17899,6.3
17903,16.3
17907,19.3
17908,41.6
17909,30.3
17910,3.3
17913,3.0
17914,17.5
17915,26.3
17917,30.6
17919,17.1
17920,17.5
17921,18.5
17924,25.0
17925,3.3
17926,15.7
17927,23.0
17928,16.1
17929,32.1
17930,10.1
17931,17.0
17932,7.3
17933,8.2
17934,21.1
17937,3.1
17938,15.6
17940,17.5
17941,28.2
17944,-4.7
17946,22.1
17947,8.6
17949,5.8
17951,7.4
17953,11.5
17956,-20.1
17958,18.7
17959,18.5
17960,19.8
17965,22.7
17967,6.1
17969,14.7
17970,20.2
17971,26.2
17974,4.3
17976,29.6
17977,23.1
17978,14.6
17980,11.9
17983,5.6
17986,12.9
17988,15.0
17994,-2.1
17995,21.4
17999,17.0
18000,6.3
18007,41.6
18010,21.4
18011,15.0
18014,12.7
18016,30.2
18017,25.6
18018,21.3
18019,15.9
18020,3.6
18021,26.5
18022,10.5
18026,26.9
18028,4.0
18029,19.9
18030,24.3
18031,17.6
18032,15.9
18033,3.5
18042,12.0
18043,13.1
18044,3.0
18045,22.9
18048,6.4
18050,31.8
18052,16.5
18055,4.6
18056,-12.4
18060,19.6
18063,25.1
18066,14.2
18067,20.2
18068,8.6
18069,28.8
18070,32.8
18073,7.3
18074,14.7
18075,31.6
18077,16.9
18078,8.3
18080,31.8
18081,10.8
18082,30.7
18085,5.0
18086,10.5
18089,30.0
18092,24.9
18094,-4.7
18096,26.4
18097,13.2
18101,8.2
18102,26.9
18103,7.2
18107,41.6
18108,6.4
18109,20.1
18111,30.9
18112,3.8
18114,24.2
18118,16.7
18119,15.9
18122,26.8
18124,18.4
18126,7.2
18128,28.3
18131,13.3
18132,21.1
18133,9.0
18136,32.8
18137,19.4
18139,25.7
18140,27.8
18143,8.8
18144,10.8
18146,28.2
18148,22.2
18149,3.1
18152,13.9
18156,-20.1
18159,10.2
18160,27.1
18167,28.5
18168,17.4
18170,23.6
18172,13.1
18175,10.6
18176,20.2
18181,26.1
18182,24.2
18183,3.0
18185,6.7
18190,29.3
18191,25.0
18194,-7.2
18198,12.1
18199,30.2
18200,26.0
18201,7.5
18206,39.1
18209,19.3
18214,8.7
18217,20.1
18219,18.5
18220,14.0
18222,31.5
18223,20.5
18226,17.5
18228,20.3
18231,31.0
18232,10.8
18235,13.2
18236,25.8
18237,21.1
18238,6.0
18241,30.9
18243,5.4
18244,15.9
18246,17.6
18249,3.8
18251,4.0
18252,15.3
18253,16.6
18254,4.7
18256,-25.3
18267,20.2
18269,5.2
18270,23.6
18274,10.6
18277,31.0
18279,14.5
18281,12.9
18282,0.5
18283,31.9
18285,10.6
18287,27.3
18288,25.8
18293,-7.2
18296,21.9
18298,20.7
18299,9.3
18302,16.4
18304,19.8
18305,6.5
18307,39.1
18308,19.7
18311,25.9
18312,15.1
18313,16.9
18319,15.9
18320,23.0
18324,28.7
18325,3.3
18326,11.4
18327,12.3
18331,10.8
18336,31.3
18337,22.7
18339,24.4
18342,20.6
18343,21.0
18344,24.5
18351,23.3
18353,23.0
18354,10.0
18356,-17.5
18357,5.4
18358,25.9
18360,25.8
18361,4.3
18363,9.8
18370,18.5
18375,10.9
18376,26.7
18378,25.5
18382,0.5
18389,24.7
18390,16.5
18391,30.4
18393,32.5
18394,-9.8
18400,29.9
18402,10.9
18405,29.0
18406,39.1
18412,6.5
18413,3.0
18418,18.5
18419,19.3
18420,29.9
18426,28.8
18427,20.6
18432,8.2
18436,24.0
18442,32.5
18443,-4.7
18445,24.8
18449,9.5
18450,6.5
18451,5.8
18453,13.3
18454,3.6
18455,-17.5
18461,13.2
18468,26.2
18474,11.7
18475,17.5
18478,16.7
18479,26.4
18480,20.5
18481,5.6
18485,31.2
18487,27.5
18488,24.5
18489,12.0
18492,-4.7
18493,17.3
18495,28.0
18496,6.2
18497,4.5
18501,31.6
18504,20.3
18505,39.1
18507,14.8
18508,29.4
18514,13.9
18516,23.2
18517,13.5
18518,18.5
18520,13.2
18521,7.5
18526,20.0
18528,16.7
18529,8.0
18530,13.3
18539,23.5
18542,3.0
18547,9.3
18548,18.2
18550,11.1
18553,-15.0
18554,32.7
18560,3.7
18562,9.1
18568,28.8
18572,3.3
18574,18.2
18576,31.7
18578,14.4
18580,8.2
18586,28.7
18588,25.2
18590,3.3
18591,0.5
18593,16.0
18595,24.7
18597,24.9
18598,8.5
18602,29.0
18603,21.0
18605,22.5
18608,28.9
18611,5.0
18613,18.6
18615,-22.7
18617,30.9
18618,26.5
18619,17.3
18620,21.7
18621,28.9
18622,29.5
18626,29.7
18627,16.2
18629,21.0
18630,14.2
18634,4.2
18637,22.6
18641,0.5
18643,20.1
18644,29.8
18646,15.2
18650,14.3
18653,-7.2
18655,17.9
18656,20.7
18660,29.4
18663,27.2
18664,30.7
18665,41.6
18668,5.1
18671,26.6
18672,4.7
18673,16.1
18675,10.2
18677,18.5
18678,13.7
18680,6.9
18684,20.9
18687,8.2
18690,8.2
18692,22.8
18694,4.0
18695,19.2
18696,30.0
18697,30.5
18698,11.6
18699,7.9
18701,8.8
18702,-4.7
18704,31.2
18707,10.3
18712,26.6
18713,9.5
18714,-20.1
18715,20.7
18717,9.9
18718,11.4
18719,3.7
18722,15.0
18724,24.3
18725,3.8
18727,26.2
18729,28.4
18730,31.4
18731,20.0
18733,32.2
18735,24.2
18736,23.4
18738,3.1
18740,5.6
18741,21.4
18750,22.6
18751,-2.1
18755,8.7
18757,16.1
18758,29.4
18759,12.7
18761,7.2
18762,12.2
18764,41.6
18766,7.1
18770,13.3
18771,17.5
18772,28.0
18773,4.0
18777,15.9
18779,14.5
18783,31.2
18786,10.6
18789,13.3
18796,29.6
18798,19.7
18799,11.6
18801,3.0
18802,17.4
18805,31.4
18811,10.4
18812,-15.0
18815,6.5
18818,20.4
18819,25.6
18820,27.0
18822,26.5
18824,10.7
18825,13.9
18826,31.3
18831,31.9
18834,30.1
18835,18.9
18837,3.2
18839,13.3
18840,10.4
18842,16.3
18843,25.8
18844,12.1
18845,7.0
18847,13.0
18848,3.9
18851,-4.7
18852,19.7
18853,32.1
18854,15.7
18856,18.9
18857,31.8
18858,19.3
18861,3.8
18862,8.4
18863,9.9
18864,41.6
18866,20.7
18870,6.9
18873,6.7
18874,29.6
18876,18.5
18877,30.5
18879,4.0
18880,30.0
18882,21.6
18884,24.5
18885,12.8
18886,15.0
18887,15.4
18888,13.3
18895,9.3
18896,20.8
18897,20.3
18902,10.8
18907,7.0
18909,27.3
18911,20.0
18913,26.3
18914,-22.7
18916,7.8
18917,29.6
18921,17.9
18922,27.8
18927,23.6
18928,24.0
18932,10.5
18936,7.7
18937,12.3
18938,13.9
18939,0.5
18942,15.3
18943,20.3
18946,6.4
18948,30.5
18949,20.3
18951,-4.7
18953,12.3
18954,6.4
18955,3.3
18956,8.8
18957,8.5
18961,19.7
18962,3.2
18964,41.6
18965,3.1
18966,12.7
18968,24.0
18971,8.4
18974,17.6
18975,13.2
18976,15.9
18977,5.4
18978,31.2
18979,7.4
18981,7.8
18982,24.1
18987,25.6
18989,13.3
18992,5.5
18994,29.6
18999,13.8
19000,14.0
19001,18.5
19002,11.1
19004,15.0
19005,18.9
19011,21.6
19012,22.8
19013,-25.3
19015,23.9
19019,4.7
19020,29.6
19022,15.2
19026,21.0
19027,6.9
19029,17.0
19030,22.5
19032,3.5
19033,5.9
19036,8.1
19037,23.4
19040,3.0
19041,20.1
19044,10.6
19045,8.1
19046,4.5
19049,29.0
19051,-7.2
19054,14.9
19055,17.4
19056,30.3
19057,13.2
19058,25.0
19059,31.0
19063,41.6
19064,27.2
19066,9.0
19068,20.2
19070,14.2
19071,31.6
19072,7.3
19074,10.1
19076,18.5
19077,19.7
19081,14.9
19083,24.2
19084,3.3
19085,4.5
19088,10.8
19090,5.6
19091,10.8
19099,16.4
19101,23.6
19103,20.8
19107,9.9
19109,15.0
19113,-17.5
19114,5.3
19116,25.2
19117,18.9
19119,18.0
19122,6.0
19123,22.0
19125,3.2
19126,13.9
19127,18.5
19129,24.7
19130,20.0
19133,17.9
19134,32.4
19135,32.3
19137,23.1
19139,0.5
19141,3.8
19142,6.9
19146,5.2
19147,6.9
19148,6.6
19150,-7.2
19151,19.9
19152,19.5
19155,24.6
19158,6.8
19159,9.8
19162,7.5
19164,39.1
19166,20.0
19167,28.3
19168,27.9
19169,20.3
19170,28.5
19174,25.6
19175,20.6
19176,18.5
19177,18.2
19178,20.8
19181,6.1
19184,19.1
19186,31.1
19188,10.8
19190,30.3
19191,30.4
19195,27.3
19197,5.3
19199,28.3
19200,27.1
19201,28.8
19203,22.4
19206,5.5
19208,21.0
19209,32.2
19211,30.1
19213,-9.8
19217,17.0
19224,27.9
19225,26.2
19229,16.8
19233,23.9
19234,6.3
19235,26.8
19236,12.3
19237,8.5
19238,5.6
19239,19.8
19242,17.0
19243,10.1
19246,15.4
19248,14.6
19249,13.4
19250,-2.1
19251,5.4
19252,30.8
19254,10.1
19255,5.1
19258,12.0
19259,20.3
19261,32.3
19262,41.6
19265,26.8
19267,17.1
19268,16.5
19270,25.8
19272,22.4
19274,15.9
19276,24.2
19279,16.8
19281,8.2
19286,25.5
19287,15.9
19289,11.9
19291,22.1
19293,8.9
19294,29.5
19296,28.8
19297,21.7
19298,16.9
19300,5.6
19303,17.9
19306,21.1
19308,29.0
19310,13.9
19311,-15.0
19313,6.3
19314,30.1
19315,25.6
19319,28.5
19321,9.7
19324,28.8
19325,18.6
19329,23.3
19331,4.3
19334,7.7
19336,30.5
19337,10.8
19340,4.4
19341,27.2
19345,11.1
19346,19.0
19349,-4.7
19350,3.6
19351,11.9
19352,11.8
19353,20.4
19355,15.6
19356,4.5
19360,3.9
19361,4.5
19362,41.6
19363,11.6
19365,21.0
19366,15.6
19369,13.6
19375,15.9
19377,9.8
19378,15.5
19380,11.6
19385,8.0
19387,13.3
19388,14.5
19392,26.4
19393,23.8
19399,13.3
19400,7.2
19404,14.0
19409,20.8
19411,-25.3
19414,30.7
19418,9.6
19420,26.5
19421,9.9
19423,20.9
19425,21.0
19429,5.5
19431,31.7
19433,30.7
19434,21.9
19435,4.8
19436,6.0
19438,0.5
19440,13.0
19445,17.0
19446,6.3
19447,24.3
19449,-7.2
19450,25.6
19454,8.5
19460,8.5
19461,12.3
19462,41.6
19463,5.0
19465,17.7
19471,29.0
19474,18.5
19476,15.6
19479,32.1
19485,3.4
19486,10.8
19487,3.3
19489,5.0
19492,11.0
19494,30.6
19495,26.9
19496,9.5
19497,12.9
19500,18.5
19506,18.8
19508,25.1
19512,-25.3
19513,16.5
19515,12.2
19516,7.7
19522,19.2
19523,10.3
19525,21.0
19526,26.8
19528,25.8
19531,25.9
19536,21.5
19537,0.5
19541,23.5
19543,30.3
19545,17.4
19546,17.3
19547,31.0
19549,-9.8
19550,32.5
19553,10.5
19555,20.9
19556,26.7
19558,8.0
19562,41.6
19566,26.1
19568,7.9
19570,12.0
19571,24.9
19572,10.1
19574,18.5
19580,12.7
19582,4.3
19584,9.1
19585,21.2
19586,3.5
19587,8.2
19588,4.1
19590,32.1
19592,4.7
19593,12.0
19596,16.6
19598,-2.1
19601,5.0
19602,28.2
19603,12.4
19605,7.4
19607,18.1
19609,10.5
19610,-17.5
19611,25.1
19613,12.7
19615,10.8
19616,31.2
19618,24.4
19621,11.5
19623,26.2
19624,22.2
19625,6.7
19626,21.6
19627,21.0
19630,24.7
19631,25.5
19633,25.0
19634,16.3
19635,13.9
19637,5.6
19639,28.9
19640,31.4
19643,9.7
19644,8.9
19645,31.7
19648,-2.1
19652,23.5
19654,15.0
19656,3.6
19658,12.6
19660,39.1
19661,9.4
19664,26.3
19665,20.7
19669,8.5
19671,32.7
19673,15.9
19674,13.4
19675,18.4
19676,19.7
19677,9.7
19680,16.7
19681,10.4
19682,26.9
19684,18.3
19685,15.9
19690,29.8
19691,10.4
19692,31.0
19693,10.0
19694,13.2
19696,21.9
19697,28.1
19698,0.5
19702,9.2
19705,8.4
19706,9.9
19709,-12.4
19710,12.3
19711,28.4
19712,7.6
19714,25.7
19715,31.0
19717,3.6
19718,20.1
19720,14.2
19721,24.4
19723,33.9
19724,16.8
19726,4.6
19728,9.9
19731,4.3
19733,30.5
19734,15.0
19735,10.8
19736,6.8
19739,27.6
19740,12.8
19741,27.6
19742,17.6
19743,5.7
19744,31.4
19745,12.7
19746,28.8
19747,-2.1
19750,4.6
19752,20.6
19753,32.0
19755,22.0
19756,23.9
19758,11.2
19761,41.6
19767,7.6
19771,22.4
19773,18.5
19775,23.6
19776,12.0
19779,13.2
19780,12.2
19781,5.4
19785,15.9
19787,21.6
19789,14.1
19790,14.2
19791,5.6
19792,12.6
19794,18.3
19796,27.4
19798,10.8
19799,31.2
19800,26.1
19802,5.3
19803,5.7
19806,10.5
19809,32.3
19810,-22.7
19812,32.2
19813,13.4
19814,3.6
19816,24.5
19818,9.7
19819,23.7
19820,21.3
19822,10.6
19823,23.6
19825,25.9
19829,5.1
19830,24.4
19832,17.1
19833,13.0
19836,3.0
19838,17.9
19842,25.7
19844,13.7
19845,31.5
19846,29.8
19848,-4.7
19849,14.8
19853,26.9
19860,41.6
19861,8.2
19862,18.4
19865,22.5
19867,32.4
19868,15.3
19870,3.5
19872,15.9
19873,26.5
19875,6.6
19876,15.3
19877,28.4
19878,5.2
19880,23.1
19882,19.1
19883,13.9
19885,13.3
19886,31.5
19889,16.0
19898,15.9
19903,12.5
19904,3.3
19907,26.4
19909,16.7
19910,-22.7
19911,31.2
19915,12.4
19916,11.7
19917,4.6
19918,21.2
19919,22.8
19921,18.0
19923,21.0
19924,13.8
19925,22.6
19927,20.9
19930,16.8
19931,5.3
19932,8.7
19934,9.5
19935,31.9
19936,3.0
19938,3.7
19940,31.0
19942,4.3
19943,26.0
19944,4.1
19947,-7.2
19948,4.3
19949,30.5
19951,26.0
19953,15.5
19956,5.9
19958,4.5
19960,41.6
19961,9.5
19962,7.5
19963,27.9
19964,18.7
19965,19.7
19966,19.1
19967,9.2
19968,11.4
19969,32.2
19971,14.7
19973,18.5
19976,6.4
19982,31.1
19985,10.8
19987,19.6
19989,6.4
19990,32.0
19991,17.2
19992,19.1
19994,13.6
19995,18.8
19997,23.6
19998,23.6
20000,31.0
20004,30.9
20005,4.4
20006,13.5
20007,4.1
20009,-20.1
20010,20.7
20011,13.0
20015,15.0
20017,19.7
20019,25.8
20021,14.4
20023,21.0
20028,8.3
20029,4.0
20030,17.4
20031,7.7
20035,17.6
20036,0.5
20037,27.7
20040,24.7
20041,32.5
20042,6.4
20044,23.1
20046,28.9
20047,-7.2
20049,16.4
20051,22.0
20053,16.7
20054,13.6
20056,11.5
20058,17.0
20060,39.1
20067,9.7
20068,24.7
20072,18.5
20074,26.4
20077,31.8
20079,9.7
20080,26.1
20082,21.1
20083,31.6
20084,8.2
20087,18.6
20088,21.0
20090,21.9
20092,20.1
20093,6.1
20094,10.7
20095,32.3
20097,-2.1
20099,21.2
20102,9.1
20106,16.8
20107,5.4
20108,14.6
20109,-17.5
20112,10.9
20113,4.1
20114,16.0
20116,18.8
20117,24.7
20118,16.5
20122,26.2
20123,5.1
20127,19.8
20128,25.9
20129,29.8
20134,5.6
20136,5.5
20138,12.1
20140,15.9
20146,-2.1
20147,13.5
20150,21.2
20156,14.0
20158,41.6
20161,15.1
20163,32.9
20165,10.5
20168,25.5
20169,18.1
20171,15.9
20173,30.5
20176,22.7
20177,9.3
20180,31.0
20184,13.3
20185,3.5
20186,4.0
20191,13.5
20194,28.0
20195,13.4
20196,5.6
20197,12.9
20198,26.7
20200,10.2
20201,17.1
20204,17.3
20207,-12.4
20211,26.8
20215,3.6
20219,9.0
20220,31.3
20223,14.4
20225,23.6
20226,17.4
20227,20.8
20230,7.8
20231,15.5
20232,14.1
20233,19.4
20234,10.8
20238,23.2
20240,3.4
20244,6.1
20245,10.9
20246,-4.7
20249,4.7
20251,31.6
20254,31.7
20257,11.7
20258,39.1
20260,12.6
20262,22.7
20263,32.9
20266,11.9
20268,32.8
20269,18.2
20270,25.3
20271,18.5
20272,4.1
20275,19.9
20276,30.6
20277,28.3
20279,20.0
20280,17.9
20282,21.9
20283,10.8
20284,10.1
20286,18.3
20287,7.1
20289,14.3
20291,14.8
20292,3.4
20296,10.8
20297,27.0
20299,26.2
20300,10.5
20302,9.6
20303,23.1
20304,3.8
20307,20.4
20308,-20.1
20311,11.7
20313,12.4
20314,21.5
20315,21.6
20317,9.8
20321,3.5
20322,23.6
20323,23.7
20325,24.4
20326,6.2
20327,32.7
20329,20.0
20332,22.3
20334,0.5
20335,12.4
20336,11.1
20337,25.6
20338,7.6
20339,21.6
20341,23.8
20345,-4.7
20346,13.8
20348,18.7
20349,27.0
20355,7.7
20357,13.1
20358,39.1
20361,16.6
20362,12.8
20364,15.1
20366,3.1
20367,6.8
20369,4.1
20370,9.7
20371,18.5
20374,31.6
20378,4.2
20380,14.5
20381,17.0
20383,13.3
20384,28.6
20385,32.3
20386,6.1
20388,13.8
20389,22.8
20392,18.6
20394,25.1
20396,18.5
20398,27.8
20400,6.1
20401,18.5
20402,21.9
20403,26.2
20404,18.2
20408,-22.7
20409,30.2
20410,13.1
20411,15.4
20412,15.9
20418,24.3
20419,27.0
20420,28.5
20421,21.0
20423,9.5
20424,6.8
20426,18.8
20427,11.8
20428,11.3
20429,22.0
20430,4.0
20434,0.5
20435,19.7
20436,27.0
20437,15.5
20440,12.8
20442,17.2
20443,21.3
20446,-7.2
20448,27.9
20450,27.3
20452,28.7
20454,11.5
20457,12.1
20458,41.6
20459,3.4
20461,7.8
20466,32.3
20467,23.8
20470,21.0
20472,7.5
20477,19.1
20478,28.1
20479,8.7
20481,5.1
20483,10.8
20485,29.0
20486,10.0
20490,5.3
20491,14.0
20496,23.6
20497,9.8
20503,5.2
20504,28.1
20508,-17.5
20511,6.3
20516,19.0
20520,23.9
20521,21.0
20522,14.4
20527,14.4
20528,20.6
20529,6.7
20530,10.9
20531,6.6
20533,25.9
20534,0.5
20537,23.1
20539,15.3
20540,14.5
20541,3.7
20543,16.6
20545,-9.8
20546,26.5
20547,5.8
20548,18.0
20550,28.0
20551,6.7
20554,6.1
20555,20.4
20556,27.0
20557,41.6
20558,6.8
20559,12.5
20560,31.4
20562,31.7
20564,23.3
20568,7.3
20570,12.1
20571,21.0
20573,17.6
20574,19.8
20580,23.1
20581,9.3
20582,4.9
20583,8.2
20585,4.4
20587,10.9
20588,11.4
20589,8.9
20593,5.1
20594,0.5
20595,6.1
20598,31.3
20600,33.0
20605,-12.4
20608,19.9
20612,6.1
20613,3.3
20615,32.5
20616,30.6
20619,31.3
20620,23.9
20624,9.9
20625,12.4
20627,6.5
20628,29.2
20629,23.1
20632,10.8
20633,12.3
20636,16.5
20637,18.1
20638,15.4
20640,20.2
20641,11.2
20643,4.4
20644,-2.1
20647,33.0
20649,14.6
20654,6.0
20656,22.8
20657,41.6
20658,18.1
20659,18.8
20663,5.1
20665,8.9
20666,10.9
20668,27.2
20669,15.9
20670,25.9
20672,14.7
20673,12.4
20681,13.3
20682,6.8
20683,25.9
20684,16.7
20685,22.8
20686,17.2
20687,11.1
20688,4.6
20693,24.8
20694,3.8
20695,8.2
20696,9.4
20697,32.8
20699,16.5
20706,-12.4
20707,10.7
20709,21.8
20711,21.4
20715,32.1
20717,16.5
20718,21.1
20719,31.3
20721,9.9
20722,21.3
20724,24.2
20725,14.8
20728,32.1
20729,21.4
20730,5.7
20731,10.8
20733,27.5
20734,15.1
20735,12.0
20736,3.1
20738,14.6
20742,9.7
20743,15.8
20744,-4.7
20747,27.3
20752,13.5
20755,31.2
20756,41.6
20757,24.1
20758,19.7
20760,13.4
20762,30.8
20763,14.9
20765,5.6
20766,28.1
20769,18.5
20770,5.4
20771,32.9
20772,21.1
20774,22.3
20775,11.9
20778,26.6
20782,13.3
20784,8.0
20786,9.8
20790,4.1
20794,15.9
20795,30.9
20796,3.6
20797,11.4
20802,11.7
20806,-22.7
20808,18.6
20810,16.9
20813,12.0
20814,19.8
20816,26.2
20818,22.1
20819,21.0
20822,27.5
20823,20.7
20824,18.3
20825,18.5
20828,17.0
20829,29.9
20831,10.4
20833,0.5
20836,27.2
20837,3.8
20838,4.6
20839,29.8
20840,26.9
20841,3.1
20842,5.2
20843,17.6
20844,-7.2
20848,31.7
20849,28.8
20851,22.6
20852,12.4
20853,30.2
20854,20.9
20856,41.6
20857,27.3
20858,27.5
20859,31.0
20860,16.3
20865,6.1
20868,30.9
20869,18.5
20870,5.2
20871,6.2
20872,24.1
20873,15.7
20875,4.6
20876,4.1
20878,21.5
20879,8.1
20881,10.8
20883,5.8
20884,11.6
20885,5.6
20886,32.2
20888,13.7
20889,28.5
20894,21.0
20895,15.7
20897,11.4
20900,10.0
20901,23.0
20906,18.6
20907,-22.7
20910,22.9
20911,24.9
20913,32.5
20914,30.8
20916,14.2
20920,18.5
20923,7.9
20930,20.0
20932,0.5
20933,6.3
20934,26.3
20941,3.8
20942,9.3
20943,-9.8
20944,10.0
20947,10.3
20948,3.0
20949,31.1
20953,4.7
20955,21.5
20956,41.6
20958,26.9
20959,20.5
20967,14.5
20969,18.5
20970,15.1
20972,13.4
20973,24.6
20974,24.5
20981,8.2
20982,31.7
20984,21.4
20985,22.4
20989,16.7
20992,6.1
20993,-2.1
20994,16.6
20998,31.8
20999,29.1
21000,25.9
21001,23.8
21004,7.6
21005,-20.1
21007,18.2
21008,24.5
21012,7.6
21017,30.5
21018,26.2
21020,26.8
21022,27.4
21023,27.7
21024,28.4
21025,14.3
21027,12.9
21028,22.8
21029,28.1
21030,7.6
21031,5.6
21034,17.4
21035,27.4
21036,19.6
21039,22.9
21041,10.8
21043,-2.1
21050,5.3
21051,30.8
21053,10.2
21054,20.3
21055,41.6
21057,26.7
21058,29.8
21060,17.4
21063,21.3
21065,16.2
21066,4.0
21067,15.9
21068,3.2
21070,13.9
21071,22.2
21074,17.3
21077,9.9
21078,12.6
21079,21.2
21080,15.9
21081,6.6
21083,24.5
21084,14.7
21085,13.2
21086,14.8
21089,27.3
21093,3.0
21096,19.7
21097,8.6
21103,29.3
21104,-12.4
21106,25.5
21107,14.8
21111,15.0
21116,27.6
21117,31.3
21118,19.1
21119,20.9
21123,3.5
21126,31.2
21129,22.9
21130,10.8
21131,21.9
21132,12.8
21133,17.6
21134,28.4
21136,9.9
21138,24.5
21139,10.5
21140,7.0
21141,23.9
21142,-4.7
21146,32.5
21148,24.7
21149,32.6
21151,14.9
21154,44.2
21155,25.4
21159,31.9
21163,13.9
21164,6.8
21167,28.0
21168,18.5
21169,22.5
21171,12.9
21172,21.6
21176,8.2
21177,32.5
21180,13.3
21181,3.2
21182,23.0
21184,26.5
21185,26.9
21186,6.3
21188,26.1
21189,4.7
21192,10.8
21194,27.5
21195,15.7
21197,15.5
21200,28.4
21204,-22.7
21211,16.8
21216,19.9
21218,23.6
21220,26.6
21224,32.0
21226,25.4
21227,21.8
21231,3.0
21235,5.5
21238,31.4
21240,28.7
21242,-7.2
21245,3.0
21248,23.2
21251,19.7
21252,7.2
21255,41.6
21256,25.9
21260,18.9
21261,12.1
21262,32.1
21264,28.0
21265,21.7
21267,18.5
21268,25.9
21273,23.6
21275,29.7
21279,13.3
21283,24.3
21285,19.8
21293,21.0
21295,15.1
21303,6.8
21304,23.2
21305,-22.7
21306,9.5
21309,4.8
21310,23.0
21311,18.9
21312,17.8
21313,29.7
21318,21.0
21319,32.4
21322,31.5
21324,10.4
21325,32.8
21326,28.7
21328,31.2
21330,0.5
21331,32.1
21342,-7.2
21344,24.7
21346,5.1
21349,7.2
21350,32.6
21353,26.2
21354,41.6
21356,18.9
21361,7.1
21364,7.2
21365,15.3
21367,21.0
21368,25.5
21375,18.8
21376,32.5
21377,27.7
21379,6.6
21380,8.2
21383,14.5
21385,22.1
21387,21.8
21390,24.5
21391,-4.7
21392,27.9
21393,7.7
21395,15.4
21398,25.9
21402,23.7
21403,-17.5
21406,16.1
21408,10.2
21410,18.2
21411,12.5
21412,21.8
21413,20.7
21416,28.8
21417,15.4
21428,16.9
21429,11.2
21430,8.2
21431,28.1
21432,7.4
21434,26.4
21435,23.0
21437,24.4
21439,25.0
21440,22.8
21441,0.5
21443,32.3
21444,7.2
21447,30.0
21450,7.5
21451,29.6
21452,36.5
21456,27.2
21457,27.2
21459,30.3
21460,8.2
21462,29.6
21463,10.2
21465,0.5
21466,20.5
21467,21.2
21468,21.7
21469,12.6
21473,28.8
21475,31.1
21476,28.8
21477,12.4
21480,30.2
21482,15.4
21484,10.7
21486,12.0
21487,18.6
21488,10.8
21489,25.8
21491,10.4
21492,30.7
21493,21.9
21494,26.0
21497,24.9
21498,16.1
21501,-4.7
21502,6.4
21506,32.2
21507,6.5
21508,12.3
21509,32.1
21510,9.6
21511,15.8
21513,3.7
21514,41.6
21515,24.2
21516,3.7
21517,19.9
21518,17.4
21519,28.2
21520,12.5
21522,13.4
21523,23.2
21525,26.5
21526,18.5
21528,4.7
21529,22.2
21530,14.7
21535,29.7
21537,26.4
21538,10.8
21540,18.9
21544,30.9
21547,4.6
21551,18.5
21558,30.7
21559,20.3
21562,23.6
21563,3.5
21564,-22.7
21566,24.9
21570,31.6
21571,31.6
21573,17.0
21574,6.5
21575,8.4
21576,24.7
21577,21.0
21580,14.9
21581,24.7
21585,9.5
21587,8.7
21590,0.5
21591,18.3
21592,5.2
21595,26.9
21598,8.3
21599,12.6
21601,-7.2
21604,22.7
21606,20.7
21607,31.5
21610,17.1
21611,9.8
21613,41.6
21615,16.7
21618,30.5
21620,20.1
21625,21.0
21626,21.0
21628,13.8
21632,17.7
21633,20.4
21635,25.9
21636,5.0
21638,31.9
21639,10.8
21641,27.5
21643,10.6
21644,16.5
21645,23.5
21647,5.2
21650,17.4
21651,23.6
21653,9.5
21655,14.7
21656,30.7
21657,3.4
21658,24.3
21659,15.8
21660,31.8
21663,-17.5
21665,14.8
21673,22.6
21675,28.9
21676,6.1
21677,21.0
21682,7.8
21683,31.4
21686,11.7
21687,28.5
21688,9.2
21690,0.5
21691,3.9
21693,3.4
21694,4.3
21695,14.9
21696,10.5
21698,25.3
21701,-9.8
21702,18.2
21703,7.4
21704,31.9
21705,21.8
21711,32.8
21712,19.8
21713,39.1
21716,18.3
21721,9.7
21722,30.3
21724,28.9
21725,27.0
21726,18.5
21727,4.2
21732,17.2
21733,24.5
21734,18.7
21737,5.5
21738,10.8
21740,22.1
21743,9.9
21745,15.8
21748,13.6
21750,31.3
21752,30.6
21754,19.3
21755,7.5
21759,3.1
21760,7.0
21763,4.9
21764,-7.2
21768,16.5
21770,3.7
21772,11.8
21773,19.3
21775,10.6
21776,26.2
21777,23.2
21779,16.1
21780,24.5
21782,17.7
21783,23.9
21784,25.9
21785,9.3
21787,14.9
21788,5.6
21789,5.0
21795,21.7
21799,-2.1
21800,24.9
21803,13.6
21805,5.7
21807,24.3
21812,41.6
21818,3.5
21819,13.9
21822,5.4
21823,18.4
21824,21.6
21825,15.9
21826,23.7
21827,26.1
21828,24.3
21829,6.9
21830,29.3
21832,9.2
21833,4.4
21835,9.3
21837,13.3
21838,3.3
21839,16.6
21841,6.9
21844,12.7
21845,7.6
21846,22.6
21849,9.9
21850,8.2
21851,24.2
21856,8.7
21859,11.2
21861,-15.0
21862,7.3
21863,27.6
21864,11.2
21869,32.9
21873,12.9
21874,28.8
21878,9.1
21883,6.4
21884,16.0
21886,10.8
21887,20.2
21890,28.5
21891,19.8
21892,28.9
21897,6.4
21898,15.5
21900,-4.7
21903,14.9
21904,6.7
21909,28.2
21910,26.5
21911,21.4
21912,41.6
21913,28.1
21915,17.1
21921,23.3
21924,18.5
21925,3.3
21927,9.2
21930,3.0
21936,14.2
21937,13.3
21939,30.3
21941,4.9
21942,3.6
21946,6.0
21949,15.9
21951,14.7
21954,20.4
21956,3.1
21957,23.6
21961,11.6
21962,-22.7
21966,26.7
21967,12.9
21968,3.8
21969,12.9
21976,23.6
21979,22.7
21980,17.7
21982,12.0
21985,20.4
21987,15.4
21988,0.5
21989,23.8
21991,18.5
21995,20.6
21996,11.9
21999,-7.2
22000,6.6
22002,3.2
22004,27.5
22007,22.6
22011,41.6
22017,31.9
22020,15.2
22021,20.2
22023,24.2
22025,18.5
22029,6.0
22030,24.6
22031,8.9
22033,12.9
22034,7.9
22036,12.9
22037,10.8
22041,7.8
22042,10.3
22045,7.9
22048,22.8
22049,21.0
22051,32.4
22055,31.1
22062,-20.1
22063,12.7
22065,28.1
22066,8.8
22067,16.7
22069,16.4
22070,12.1
22071,13.5
22073,11.1
22074,4.7
22075,21.0
22077,24.0
22081,24.4
22083,17.9
22084,15.1
22086,31.2
22087,0.5
22088,25.4
22090,23.3
22092,20.9
22094,4.4
22098,6.2
22099,-7.2
22100,6.5
22101,12.9
22102,7.8
22103,12.7
22107,18.2
22109,16.1
22112,39.1
22113,8.4
22121,16.4
22124,18.5
22125,19.3
22126,19.1
22128,15.1
22131,9.6
22133,32.5
22134,11.3
22135,20.6
22136,10.8
22140,32.1
22144,3.6
22147,30.3
22149,26.2
22155,13.8
22156,30.1
22157,29.7
22158,18.2
22159,24.2
22161,20.8
22162,-12.4
22169,6.5
22170,19.3
22171,5.0
22172,29.7
22174,28.3
22175,18.5
22177,27.8
22178,6.9
22182,21.3
22185,29.8
22186,14.0
22188,-2.1
22189,24.1
22190,31.8
22193,26.0
22194,22.8
22199,13.9
22200,-17.5
22201,29.4
22205,4.4
22210,25.1
22212,13.6
22213,28.8
22214,15.2
22216,12.6
22218,17.9
22219,21.2
22222,28.6
22223,6.2
22226,8.2
22227,8.7
22229,16.5
22231,20.8
22232,19.4
22234,3.5
22235,12.2
22236,12.9
22238,0.5
22242,15.4
22244,7.3
22245,29.2
22248,12.8
22249,33.9
22250,29.0
22251,6.1
22256,32.9
22259,3.0
22260,20.1
22261,-4.7
22264,29.8
22265,13.7
22268,18.9
22270,16.9
22274,23.6
22275,31.5
22277,26.9
22281,6.3
22284,13.5
22286,5.6
22287,30.9
22289,8.0
22290,6.5
22292,9.2
22293,14.4
22294,18.7
22298,-4.7
22305,26.3
22306,4.8
22308,30.5
22310,39.1
22311,8.9
22312,16.8
22313,23.4
22319,5.1
22320,23.1
22321,22.1
22322,29.6
22323,18.5
22324,20.6
22326,24.6
22329,3.2
22331,32.7
22332,17.9
22335,10.8
22336,14.7
22337,6.2
22338,6.5
22342,10.4
22346,28.1
22347,13.3
22350,21.1
22354,22.2
22356,20.3
22357,28.8
22359,20.8
22361,-22.7
22363,17.0
22366,22.0
22367,30.9
22368,23.9
22374,21.0
22375,31.1
22377,30.4
22378,28.7
22381,9.6
22382,18.6
22383,17.6
22384,19.2
22386,3.0
22387,18.6
22388,13.6
22389,27.9
22391,18.4
22394,25.0
22396,31.9
22397,-7.2
22400,19.8
22401,21.4
22402,14.9
22409,22.6
22410,41.6
22414,19.4
22415,26.0
22416,26.3
22421,32.1
22423,18.5
22425,17.0
22426,23.9
22428,4.5
22431,30.3
22433,20.1
22434,22.4
22435,10.8
22436,17.1
22439,17.9
22440,11.5
22441,20.5
22442,21.4
22445,26.5
22446,24.8
22447,27.7
22448,18.5
22450,26.5
22453,12.4
22454,23.5
22455,22.3
22460,-22.7
22461,10.6
22463,27.0
22464,11.3
22467,28.5
22469,4.3
22470,15.1
22471,30.2
22472,8.1
22473,21.0
22474,15.8
22475,14.6
22476,26.1
22481,13.3
22482,22.6
22485,11.9
22486,0.5
22488,16.6
22489,13.6
22492,20.0
22494,23.7
22498,-7.2
22499,3.9
22500,27.0
22501,10.8
22504,13.2
22505,22.6
22506,18.5
22507,30.6
22508,18.5
22510,41.6
22512,31.6
22513,22.1
22517,28.9
22518,25.2
22519,16.9
22522,18.5
22524,21.2
22525,26.5
22526,32.0
22527,13.9
22528,28.7
22529,16.5
22531,25.7
22532,30.7
22533,17.9
22535,10.8
22538,15.5
22540,32.6
22545,19.6
22547,23.6
22548,14.4
22550,18.8
22553,32.9
22556,9.5
22560,-15.0
22562,12.2
22564,4.2
22566,28.2
22568,23.8
22571,4.7
22572,16.3
22573,23.1
22574,18.5
22575,27.2
22576,28.2
22579,17.0
22582,14.6
22586,-2.1
22587,29.4
22588,23.6
22593,28.8
22595,12.5
22597,3.8
22598,-15.0
22599,21.8
22602,17.8
22603,19.0
22605,14.6
22609,7.7
22610,8.7
22611,28.8
22612,24.5
22615,18.0
22623,11.5
22625,8.2
22627,10.1
22628,8.7
22629,20.4
22634,21.1
22636,0.5
22639,6.9
22644,19.6
22646,23.5
22647,28.8
22650,4.3
22652,8.6
22658,5.6
22659,33.0
22660,-7.2
22661,7.1
22662,27.6
22663,27.0
22664,12.5
22666,7.8
22668,10.1
22669,23.8
22671,24.3
22672,26.2
22673,27.3
22677,11.5
22679,16.5
22681,10.9
22682,23.7
22684,5.6
22686,8.7
22687,32.1
22696,-4.7
22697,10.4
22698,17.5
22701,5.2
22702,15.7
22704,21.4
22707,29.6
22708,20.6
22709,41.6
22711,24.3
22718,12.4
22719,13.3
22721,18.5
22726,16.5
22727,32.7
22728,30.4
22729,7.5
22732,4.2
22733,13.3
22735,6.4
22739,10.5
22741,8.8
22743,32.2
22744,11.0
22745,31.0
22746,8.2
22749,13.8
22750,11.2
22755,17.1
22756,14.7
22758,-15.0
22760,26.0
22761,6.2
22762,19.9
22767,30.8
22768,20.9
22771,31.3
22772,31.7
22774,7.4
22775,23.3
22777,25.7
22779,3.4
22781,15.6
22784,8.2
22786,3.9
22788,25.0
22790,6.1
22792,7.6
22795,3.0
22796,29.1
22799,30.2
22801,19.2
22802,10.1
22805,24.3
22806,26.2
22809,3.8
22811,14.6
22812,11.5
22815,19.7
22817,13.6
22818,-15.0
22819,23.1
22820,31.1
22821,14.1
22824,12.7
22826,31.2
22827,20.4
22828,4.5
22829,32.1
22830,9.4
22833,18.5
22838,13.0
22839,3.2
22841,18.0
22842,26.0
22843,21.2
22845,-2.1
22846,23.2
22850,30.7
22853,9.5
22856,22.4
22857,-17.5
22859,17.6
22863,28.7
22870,8.8
22871,28.8
22872,24.7
22877,4.9
22879,23.4
22881,15.3
22883,8.2
22885,3.9
22886,8.3
22890,25.3
22893,10.3
22894,20.0
22895,0.5
22897,24.6
22899,32.5
22901,28.1
22902,31.4
22906,31.3
22909,15.7
22913,30.9
22915,3.5
22916,31.4
22917,8.5
22919,-7.2
22921,4.9
22922,16.3
22923,31.5
22928,23.3
22929,15.0
22930,16.7
22931,26.2
22933,21.2
22934,15.9
22935,31.2
22936,16.9
22938,30.5
22941,5.0
22942,13.2
22943,3.0
22947,6.2
22949,4.2
22950,9.2
22951,28.5
22952,10.6
22954,21.3
22955,16.7
22956,-4.7
22959,21.0
22965,29.8
22967,30.4
22968,41.6
22970,14.5
22971,24.8
22972,19.5
22980,15.9
22981,8.8
22982,10.1
22983,23.6
22986,9.9
22990,25.0
22992,15.9
22995,28.7
22996,5.2
22998,20.9
23001,20.3
23002,14.3
23003,22.5
23004,7.4
23005,10.8
23006,3.1
23007,13.1
23010,3.7
23017,-22.7
23019,5.6
23020,8.2
23023,15.5
23027,29.0
23028,29.9
23030,6.8
23031,26.2
23032,7.4
23033,10.0
23034,16.9
23035,25.5
23036,8.5
23037,26.4
23038,12.5
23044,0.5
23047,21.6
23048,12.7
23050,25.1
23051,19.1
23053,16.3
23055,-4.7
23056,8.0
23057,19.4
23064,7.4
23066,15.0
23067,41.6
23068,7.5
23069,23.8
23070,18.6
23075,23.8
23077,25.3
23079,18.5
23080,31.8
23084,32.4
23085,8.0
23088,32.3
23089,19.6
23091,30.0
23092,10.8
23093,13.3
23094,24.1
23097,14.0
23098,20.4
23100,7.1
23104,29.4
23105,15.9
23106,17.7
23107,3.4
23109,20.0
23111,27.6
23114,27.7
23116,22.4
23117,-22.7
23120,29.6
23121,31.5
23123,16.2
23124,23.8
23125,10.7
23129,27.5
23131,21.0
23133,13.3
23134,13.9
23135,9.5
23137,19.5
23138,23.8
23143,0.5
23145,17.1
23146,19.4
23147,19.1
23148,3.4
23151,3.1
23152,23.9
23153,21.2
23155,-7.2
23156,15.5
23158,17.4
23160,16.7
23162,29.0
23163,32.8
23165,5.6
23166,30.1
23168,41.6
23171,18.4
23172,21.2
23175,31.6
23176,7.6
23177,12.2
23178,15.0
23179,4.8
23180,18.5
23181,21.0
23182,18.4
23185,32.7
23186,29.8
23188,23.6
23192,10.8
23193,5.1
23196,22.3
23197,14.3
23199,6.6
23200,3.8
23203,13.2
23204,23.6
23206,29.0
23209,5.2
23210,18.5
23215,15.7
23216,13.0
23217,-17.5
23220,24.9
23222,14.9
23223,18.5
23225,26.8
23226,5.2
23229,28.2
23230,22.2
23231,18.5
23232,14.3
23235,33.0
23237,32.1
23241,20.3
23242,14.0
23243,0.5
23244,4.9
23245,17.0
23248,18.7
23250,29.9
23251,29.4
23254,25.8
23255,-9.8
23256,32.9
23259,7.0
23260,23.5
23267,41.6
23268,10.1
23269,14.2
