0,167.7
1,168.6
2,154.8
4,125.0
5,162.5
6,172.7
7,180.5
9,120.6
10,167.7
11,132.8
12,149.7
15,142.0
18,207.1
19,122.6
20,127.9
23,157.4
24,90.9
25,88.7
26,123.7
28,86.8
30,190.7
31,86.1
33,144.5
35,120.1
36,92.1
39,138.3
40,119.9
41,141.3
44,157.4
45,179.4
47,163.0
49,126.4
52,98.3
54,142.0
55,137.0
57,148.8
58,176.6
60,175.2
65,167.7
67,94.6
68,182.6
74,140.0
75,144.5
77,126.3
78,119.0
80,184.8
82,154.2
84,105.9
86,185.7
89,117.6
92,197.2
93,106.4
95,123.3
96,144.5
98,143.5
104,149.5
106,185.7
107,108.9
111,96.2
117,162.5
119,108.3
120,90.8
121,182.4
125,169.5
127,111.2
128,163.8
130,170.2
131,199.4
135,207.5
141,172.8
145,135.5
146,84.9
147,141.7
152,162.5
154,149.5
156,102.8
158,198.8
161,88.9
162,183.3
163,170.2
164,142.4
167,141.8
168,81.3
175,149.7
182,187.5
184,136.5
186,188.3
191,121.1
198,170.2
199,88.1
200,103.6
203,137.9
206,119.7
207,122.5
208,165.9
209,170.2
210,200.5
211,174.8
212,142.7
214,184.8
221,170.2
222,146.5
223,93.2
224,153.4
226,94.0
227,135.2
228,142.2
229,118.0
231,193.0
232,152.2
233,144.6
234,175.6
236,137.6
238,129.3
239,101.1
241,185.2
243,167.7
244,156.6
246,88.5
248,120.4
252,107.3
253,131.5
254,136.8
256,156.4
258,154.8
260,195.5
261,161.8
264,135.9
267,178.0
269,206.3
270,124.4
272,159.2
273,154.8
278,165.1
281,182.7
282,169.6
289,167.7
291,94.6
292,149.2
293,152.0
294,142.4
296,155.1
301,160.0
302,149.1
303,110.4
305,201.0
306,172.2
309,101.3
312,152.2
313,171.6
314,150.2
315,133.2
317,147.9
318,197.6
323,167.7
326,102.1
330,118.3
334,116.0
335,142.0
337,201.9
340,180.9
341,118.7
344,177.6
346,197.1
347,183.1
353,167.1
358,183.1
359,174.1
361,155.8
362,136.9
363,152.9
364,194.0
366,187.1
367,195.7
369,175.4
370,122.7
371,172.3
372,125.3
376,147.6
377,202.9
378,176.4
379,189.5
380,172.8
381,86.7
383,98.6
384,137.3
386,155.9
388,175.0
390,159.2
391,196.6
393,157.4
399,189.9
404,178.0
405,189.0
407,186.6
409,118.9
410,150.3
411,163.1
413,197.9
415,149.7
416,138.7
419,90.7
423,81.9
426,122.7
427,185.7
428,155.5
430,118.9
434,205.5
438,180.5
441,200.3
445,185.4
446,182.7
449,167.7
455,183.3
456,106.8
459,144.5
461,160.0
463,193.6
464,148.0
465,130.9
467,148.0
469,90.8
472,174.4
473,144.5
474,163.0
475,107.3
478,145.4
479,177.8
480,190.4
481,94.8
482,90.6
484,172.8
485,111.9
489,208.2
492,143.9
493,150.0
495,147.1
497,115.8
501,199.1
502,154.9
505,195.4
506,180.5
508,82.9
509,183.3
514,165.4
515,192.6
517,189.7
518,178.0
519,154.5
520,190.0
523,188.3
525,137.9
527,155.0
529,128.2
530,167.7
533,99.2
534,192.0
539,200.2
540,156.1
541,160.0
542,108.7
550,182.6
552,147.1
553,91.6
554,187.8
558,120.7
561,145.6
564,180.5
566,177.6
568,178.1
571,140.4
572,177.4
573,179.9
575,160.0
577,167.0
579,105.4
583,167.5
584,82.6
585,176.8
586,188.3
587,95.8
588,111.3
589,156.0
590,81.4
593,204.6
594,149.2
595,190.9
599,180.5
604,208.0
605,120.0
608,164.0
610,165.1
611,121.0
612,95.8
613,174.1
614,85.5
615,87.7
616,149.0
619,187.4
620,183.7
621,157.4
623,191.2
627,173.2
629,85.6
632,144.5
634,122.6
635,194.3
636,118.9
638,172.9
642,106.9
643,89.1
644,183.1
646,124.6
648,170.6
655,162.5
656,182.3
659,144.5
661,129.3
662,132.3
663,199.0
664,90.3
666,169.7
667,178.0
669,146.3
671,157.9
672,153.9
673,107.2
674,111.5
675,160.4
678,170.2
679,171.6
681,161.5
685,150.8
688,206.8
689,207.0
690,152.2
694,189.4
695,135.9
696,127.7
698,204.2
699,138.5
700,112.0
701,154.8
702,164.6
705,191.9
706,186.7
707,111.1
711,143.4
712,144.5
714,104.2
715,125.1
717,194.0
719,93.2
720,117.7
721,131.1
724,185.7
728,168.2
734,85.5
735,97.4
736,165.1
739,146.0
741,111.2
744,143.2
745,139.4
747,178.0
748,191.2
753,150.8
754,134.8
755,179.5
756,129.2
758,167.7
759,80.6
764,198.8
765,118.3
766,147.8
767,129.1
768,113.1
770,152.2
771,88.9
773,171.6
774,133.6
775,84.5
777,93.6
779,209.9
780,140.0
781,160.0
782,203.3
787,162.5
789,106.6
790,149.6
793,147.1
795,186.4
798,199.5
799,133.2
800,114.5
801,206.8
804,190.8
807,205.2
810,84.9
811,167.0
813,151.1
816,165.1
818,97.6
821,207.4
824,81.1
827,170.2
828,98.6
829,134.6
831,134.9
834,201.4
835,146.2
838,165.1
839,93.3
840,162.4
841,167.9
843,138.9
846,148.8
847,155.3
849,152.2
851,157.0
853,183.3
855,200.5
857,154.8
858,154.8
860,85.8
862,162.5
865,144.4
867,113.8
868,178.3
872,199.3
873,147.1
876,191.8
880,161.5
881,170.0
882,80.5
883,102.6
884,188.3
885,145.7
887,179.3
889,116.2
892,159.8
894,139.1
896,167.7
898,115.1
899,121.6
902,204.9
907,167.7
909,94.5
910,171.9
912,188.1
915,179.7
916,149.9
918,167.7
921,196.1
922,97.7
923,143.8
924,139.0
928,195.5
930,154.8
933,82.8
935,205.8
937,184.8
939,204.8
942,170.2
943,208.1
944,182.5
946,178.5
948,189.1
949,186.7
953,147.1
955,180.8
957,179.5
959,84.6
961,119.7
964,185.7
968,107.1
969,145.5
972,148.0
975,170.2
976,88.5
978,144.1
980,151.3
984,137.6
985,177.2
986,205.0
987,167.7
988,108.9
989,110.4
990,132.6
993,178.9
994,138.4
995,187.8
996,92.3
999,162.5
1003,173.3
1004,158.7
1006,160.9
1007,94.7
1008,203.7
1010,157.4
1011,105.1
1012,187.4
1013,193.5
1017,206.0
1018,104.2
1020,96.6
1022,188.3
1023,97.3
1024,114.4
1025,101.7
1026,85.1
1027,114.1
1028,165.2
1034,102.2
1035,167.7
1037,193.1
1038,196.3
1047,165.1
1048,159.5
1049,174.1
1052,126.3
1053,140.0
1058,81.0
1060,162.5
1061,178.5
1062,88.6
1064,87.4
1065,169.7
1066,169.6
1071,189.1
1072,115.4
1073,149.7
1076,153.5
1078,100.7
1079,128.3
1082,181.5
1083,189.2
1085,188.3
1086,163.6
1088,87.7
1096,142.8
1097,170.2
1100,160.1
1101,92.8
1106,162.5
1107,98.8
1109,177.6
1110,147.1
1113,150.7
1114,140.5
1116,156.4
1119,175.6
1120,141.7
1122,185.7
1124,176.8
1125,207.8
1127,192.5
1128,154.7
1129,106.6
1130,103.1
1132,90.2
1133,144.5
1134,118.8
1135,180.5
1138,98.7
1139,117.6
1143,114.5
1145,195.7
1146,163.9
1147,172.8
1149,107.8
1151,134.5
1157,94.0
1158,187.7
1160,165.1
1163,86.7
1165,105.0
1166,129.7
1168,136.1
1169,169.4
1171,108.0
1172,147.1
1174,141.7
1175,99.4
1176,131.9
1178,170.3
1179,102.1
1181,201.5
1182,99.7
1183,84.6
1184,183.1
1185,157.3
1186,181.3
1191,110.7
1194,196.1
1196,133.8
1198,175.4
1199,97.6
1200,154.3
1202,105.6
1203,204.6
1205,155.8
1206,81.3
1207,140.4
1210,160.0
1213,158.6
1214,83.9
1215,92.5
1217,111.6
1218,123.4
1222,190.8
1223,183.7
1225,205.5
1231,83.4
1233,140.0
1234,175.4
1235,160.0
1236,91.6
1237,177.8
1239,84.5
1241,138.7
1243,100.8
1244,94.2
1247,165.1
1250,150.3
1252,129.5
1253,85.4
1256,146.2
1258,195.0
1260,162.5
1261,165.2
1263,144.4
1264,104.1
1271,83.2
1272,154.8
1273,187.1
1274,121.1
1276,199.9
1280,180.6
1284,176.7
1285,188.3
1291,183.0
1294,209.8
1297,175.4
1299,94.4
1301,101.7
1302,185.0
1303,205.4
1306,141.6
1308,80.8
1309,152.2
1310,113.4
1313,111.8
1321,188.3
1324,87.0
1325,207.2
1335,172.8
1340,187.3
1341,178.7
1342,118.1
1344,182.2
1347,172.8
1348,197.3
1350,103.9
1351,98.7
1352,164.2
1354,82.0
1355,124.5
1357,107.9
1358,156.4
1359,172.8
1364,178.2
1366,98.4
1368,175.2
1369,201.7
1372,152.2
1373,175.0
1374,155.8
1375,119.7
1377,187.0
1383,183.7
1384,183.1
1386,141.7
1389,103.4
1390,160.2
1395,107.1
1396,103.7
1397,172.8
1401,163.4
1402,125.9
1405,92.3
1406,200.0
1407,141.1
1408,90.3
1410,157.4
1413,140.5
1414,186.4
1418,173.6
1420,83.1
1421,206.2
1422,196.0
1424,97.4
1425,203.2
1426,187.5
1427,126.7
1429,150.2
1432,94.6
1433,84.8
1434,180.5
1435,93.7
1436,154.7
1441,94.4
1443,204.2
1444,149.8
1446,167.7
1447,199.9
1450,91.8
1455,184.7
1459,150.3
1460,172.8
1461,132.6
1463,178.5
1466,117.1
1467,158.9
1468,149.7
1470,133.8
1472,160.0
1475,142.3
1476,135.6
1477,194.2
1480,207.5
1484,190.8
1488,167.7
1490,96.5
1491,140.3
1492,209.9
1494,198.0
1496,145.0
1497,178.0
1498,115.0
1500,139.3
1506,83.1
1509,157.4
1510,177.4
1512,137.0
1513,165.5
1514,206.9
1516,207.0
1518,94.2
1521,193.4
1522,84.2
1525,117.9
1526,190.0
1528,97.0
1529,136.8
1530,85.7
1531,132.5
1534,178.0
1536,175.8
1537,179.3
1542,201.3
1543,179.9
1544,202.5
1545,106.2
1547,167.7
1551,159.0
1555,174.9
1557,96.6
1558,105.7
1559,170.2
1561,122.4
1562,110.0
1564,150.2
1565,146.3
1567,115.2
1568,202.8
1571,154.8
1572,85.1
1573,100.5
1576,109.1
1577,205.5
1578,133.3
1584,180.5
1585,115.7
1586,104.4
1590,172.9
1591,81.3
1597,167.7
1598,88.6
1599,101.6
1601,176.7
1608,143.9
1609,149.7
1610,202.0
1611,99.3
1614,81.9
1616,197.3
1617,80.2
1618,107.1
1620,108.3
1621,87.9
1622,190.8
1624,82.4
1631,147.5
1632,112.3
1633,117.9
1634,183.1
1635,172.9
1637,132.4
1640,111.1
1641,94.5
1646,167.7
1647,80.6
1649,147.1
1650,154.3
1651,181.2
1653,209.9
1655,95.8
1659,170.2
1660,95.5
1662,183.8
1663,83.0
1665,204.1
1667,190.6
1670,130.0
1671,177.9
1672,157.4
1676,161.6
1677,186.7
1679,98.1
1682,144.3
1683,201.4
1684,188.3
1685,176.5
1686,155.7
1689,149.2
1691,180.5
1693,174.5
1696,175.4
1698,176.2
1700,160.3
1701,130.5
1702,150.4
1703,175.3
1704,119.0
1706,208.6
1709,162.5
1710,203.6
1711,202.6
1712,192.7
1713,151.2
1715,142.4
1717,113.5
1719,111.8
1721,201.1
1723,86.6
1724,199.8
1726,186.1
1728,206.4
1732,147.0
1734,180.5
1735,169.0
1739,112.4
1740,95.4
1741,92.6
1743,188.6
1745,203.9
1746,162.5
1753,90.7
1754,92.5
1758,194.7
1759,172.8
1764,121.4
1770,166.1
1771,157.4
1772,152.2
1773,128.0
1774,113.7
1775,145.2
1777,178.7
1779,205.2
1780,120.2
1781,206.5
1783,183.1
1788,104.6
1789,113.8
1790,190.2
1791,81.6
1793,127.2
1795,122.1
1796,111.1
1797,170.2
1798,133.7
1800,83.9
1809,149.7
1815,121.8
1816,202.6
1817,158.9
1821,193.4
1822,112.5
1824,155.7
1825,171.5
1826,192.2
1828,136.2
1830,99.3
1833,183.1
1834,87.0
1840,87.6
1841,97.9
1842,194.6
1843,173.7
1844,185.3
1846,170.2
1848,171.8
1851,150.1
1854,91.9
1855,145.9
1857,199.7
1858,164.8
1859,180.5
1861,146.7
1863,157.5
1864,179.7
1865,205.9
1866,99.4
1870,195.8
1871,157.4
1872,98.3
1873,149.0
1877,145.1
1880,89.1
1882,114.1
1884,183.1
1885,122.2
1886,97.7
1887,109.6
1889,198.7
1891,162.8
1892,105.0
1893,120.5
1896,172.8
1897,203.6
1905,108.9
1907,209.4
1908,154.8
1913,82.3
1914,118.3
1917,100.7
1920,92.3
1921,196.0
1925,180.3
1926,203.6
1930,151.7
1931,123.2
1934,180.5
1936,151.4
1941,169.3
1945,202.0
1946,160.0
1950,161.7
1957,182.2
1958,172.8
1959,206.7
1960,125.0
1961,82.3
1963,166.5
1968,196.0
1969,94.9
1971,162.5
1977,84.1
1979,140.4
1980,102.5
1983,183.1
1985,87.2
1986,135.4
1988,83.1
1989,91.1
1991,153.0
1996,167.7
1997,147.9
2000,139.6
2001,83.9
2003,174.0
2004,176.9
2005,102.9
2006,207.9
2007,96.5
2009,160.0
2010,175.6
2011,200.3
2013,135.5
2015,125.6
2019,96.3
2021,198.5
2022,165.1
2023,114.4
2024,149.2
2026,128.7
2027,144.7
2032,135.8
2033,188.3
2036,177.7
2041,109.2
2043,185.9
2044,195.9
2045,172.8
2046,198.7
2049,178.0
2050,120.6
2051,174.3
2056,206.2
2058,119.7
2059,185.7
2063,103.1
2064,98.8
2066,137.2
2067,208.4
2068,190.8
2070,119.0
2071,167.7
2072,187.3
2073,83.3
2074,160.9
2077,123.3
2078,80.9
2080,144.9
2082,176.7
2083,183.1
2084,161.4
2085,106.6
2089,175.1
2090,143.9
2091,99.4
2093,110.5
2094,152.6
2096,167.7
2097,134.8
2098,143.9
2099,133.3
2100,102.0
2101,202.2
2102,178.4
2105,177.4
2108,157.4
2109,96.4
2113,139.7
2114,203.9
2115,131.3
2116,208.3
2117,146.2
2119,190.1
2120,201.1
2121,171.5
2125,130.4
2128,125.6
2129,170.8
2131,132.0
2134,185.7
2135,99.8
2137,96.9
2138,207.9
2139,204.3
2144,160.8
2146,162.5
2148,137.5
2149,209.7
2150,190.8
2153,137.5
2157,191.3
2158,178.0
2159,115.0
2165,161.1
2167,141.5
2170,160.0
2171,187.9
2172,166.1
2176,155.2
2178,163.1
2182,127.0
2183,178.0
2186,84.7
2189,206.7
2190,94.2
2191,146.3
2194,145.1
2196,167.7
2197,142.8
2199,119.2
2202,98.9
2208,152.2
2210,110.6
2213,192.3
2215,185.5
2216,120.0
2219,119.9
2220,134.5
2221,196.0
2223,176.1
2225,129.2
2226,99.8
2228,94.4
2230,91.3
2232,182.8
2233,188.3
2234,136.3
2235,112.9
2236,176.0
2237,126.3
2239,126.4
2242,154.7
2244,102.4
2245,167.7
2246,206.1
2250,165.8
2252,115.9
2253,116.8
2254,186.4
2255,179.6
2256,93.1
2257,172.3
2258,190.8
2260,144.1
2263,105.4
2264,151.6
2265,149.1
2266,140.3
2267,80.3
2269,166.9
2271,175.4
2272,110.4
2275,109.3
2276,168.0
2278,182.6
2279,145.1
2281,192.3
2283,183.1
2288,184.8
2290,174.1
2292,148.7
2293,116.0
2295,167.7
2297,184.2
2298,149.8
2299,209.1
2300,132.7
2301,192.6
2302,82.4
2304,190.1
2308,149.7
2309,186.2
2310,209.1
2311,103.6
2313,100.9
2314,194.2
2316,120.4
2317,165.3
2320,196.0
2321,116.3
2322,184.3
2325,104.2
2328,192.2
2333,185.7
2335,95.4
2337,132.2
2339,120.4
2340,176.7
2342,148.6
2343,80.5
2344,203.0
2345,162.5
2346,144.6
2351,93.1
2353,174.9
2354,193.4
2355,130.1
2358,183.1
2359,208.4
2370,162.5
2371,106.3
2372,88.1
2373,170.9
2379,93.7
2382,172.8
2383,138.1
2384,187.6
2389,161.0
2390,198.6
2391,86.4
2394,91.6
2396,165.1
2397,115.9
2398,202.0
2402,107.3
2403,199.5
2406,141.7
2408,154.8
2409,95.2
2410,93.9
2412,169.7
2419,177.2
2420,193.4
2421,156.7
2422,140.7
2424,164.8
2425,133.9
2426,181.5
2427,93.6
2428,161.9
2430,130.4
2433,178.0
2436,200.6
2438,178.9
2439,202.2
2440,168.9
2442,160.2
2444,177.7
2445,154.8
2452,86.6
2458,180.5
2461,146.0
2464,92.8
2468,164.2
2470,170.2
2473,189.9
2475,162.7
2481,186.8
2482,122.7
2483,178.0
2484,127.4
2486,81.2
2488,95.7
2490,106.8
2493,136.9
2494,109.0
2495,170.2
2496,148.9
2498,171.8
2499,82.9
2507,149.7
2508,199.9
2509,152.6
2517,167.9
2518,188.8
2520,188.3
2522,147.9
2529,80.5
2530,97.9
2531,140.8
2533,178.0
2534,178.9
2538,173.0
2544,140.8
2545,167.7
2548,202.9
2551,93.8
2552,83.6
2553,169.7
2555,94.4
2556,160.0
2557,193.4
2558,206.9
2561,100.1
2562,196.2
2565,168.0
2567,194.3
2569,156.5
2570,178.0
2572,208.4
2578,112.7
2579,143.8
2581,95.7
2582,178.0
2584,105.7
2585,124.1
2587,109.5
2590,138.2
2595,165.1
2596,134.5
2600,192.2
2603,197.0
2604,80.9
2606,183.8
2608,149.7
2609,151.1
2610,167.6
2613,173.1
2614,127.6
2615,125.7
2618,192.7
2620,193.4
2622,145.1
2623,81.9
2625,164.7
2626,167.0
2628,118.1
2630,183.8
2631,97.5
2632,183.1
2634,193.9
2636,205.3
2641,101.1
2644,162.5
2648,187.2
2649,130.8
2651,84.9
2652,209.1
2653,158.3
2656,179.2
2657,151.7
2658,185.7
2662,190.1
2664,113.7
2665,166.6
2669,82.6
2670,167.7
2672,184.1
2675,168.7
2676,126.3
2677,136.8
2678,169.7
2679,112.0
2680,190.5
2682,172.8
2684,198.9
2688,127.4
2689,177.3
2693,194.1
2694,98.5
2695,167.7
2696,121.8
2697,175.7
2700,189.0
2702,196.3
2703,187.0
2704,130.5
2705,80.6
2706,200.6
2707,157.4
2710,108.3
2712,127.3
2713,207.3
2714,204.1
2715,164.3
2718,179.7
2719,193.4
2722,196.1
2724,100.4
2731,190.3
2732,171.4
2733,178.0
2735,170.3
2736,160.6
2740,192.5
2741,155.1
2742,117.5
2743,191.2
2744,145.4
2745,157.4
2747,108.7
2748,81.3
2752,198.7
2753,176.0
2757,188.3
2758,158.1
2765,185.2
2769,185.7
2770,185.8
2772,121.1
2773,109.7
2774,99.2
2775,127.9
2777,89.3
2779,141.9
2780,127.4
2782,180.5
2787,185.0
2788,151.5
2789,130.5
2792,117.8
2795,170.2
2796,172.7
2797,111.9
2799,166.8
2801,201.6
2803,192.1
2805,110.2
2806,151.5
2807,152.2
2808,92.2
2811,122.4
2816,186.6
2817,194.5
2819,115.9
2820,190.8
2822,144.8
2823,113.7
2824,209.2
2825,143.8
2827,186.6
2829,156.1
2831,135.2
2832,180.5
2835,204.7
2836,121.6
2842,112.1
2844,162.5
2846,123.8
2847,176.8
2851,198.9
2852,94.5
2853,151.0
2854,89.9
2855,138.4
2856,144.0
2857,193.4
2858,184.9
2860,97.4
2861,157.0
2865,179.5
2868,144.7
2869,92.8
2870,178.0
2873,127.1
2878,100.1
2880,191.0
2882,170.2
2883,163.1
2884,179.1
2888,185.6
2891,140.0
2893,109.5
2894,167.7
2895,129.8
2896,100.0
2897,182.3
2901,136.6
2903,176.0
2904,208.8
2905,180.3
2907,157.4
2908,135.0
2910,140.1
2911,98.4
2914,126.6
2916,137.4
2919,196.0
2920,83.6
2921,106.5
2926,187.5
2927,140.3
2929,127.0
2931,184.7
2932,180.5
2934,178.1
2937,142.5
2938,209.3
2939,177.8
2940,142.6
2941,173.9
2942,108.1
2944,143.3
2945,160.0
2946,119.9
2948,109.7
2949,82.1
2957,190.8
2966,104.1
2969,178.0
2977,137.5
2978,186.8
2980,189.3
2981,180.5
2982,145.4
2983,122.2
2986,139.7
2988,103.5
2990,86.5
2991,153.1
2992,123.2
2994,180.2
2995,178.0
2996,131.3
2997,148.7
2998,207.6
2999,196.2
3000,104.2
3002,147.1
3003,119.0
3004,85.9
3005,134.2
3006,112.6
3007,160.0
3009,81.3
3011,164.9
3014,129.0
3017,106.9
3019,190.8
3020,142.2
3021,88.8
3023,188.5
3025,106.8
3026,124.0
3027,174.5
3028,205.7
3029,132.1
3031,134.3
3032,175.4
3035,98.0
3036,158.5
3039,108.3
3042,148.8
3043,173.9
3044,160.0
3046,188.7
3051,159.0
3054,132.8
3056,167.3
3057,196.0
3061,83.9
3064,114.2
3067,199.4
3068,148.0
3069,183.1
3072,131.1
3076,168.3
3078,102.9
3082,170.2
3084,170.2
3086,181.4
3087,181.1
3088,113.8
3094,172.8
3095,125.1
3098,83.3
3100,148.2
3102,188.5
3103,180.4
3106,160.0
3108,141.7
3109,155.1
3110,176.5
3111,204.4
3112,122.6
3116,191.0
3117,135.8
3119,193.4
3122,113.5
3124,81.1
3125,104.9
3127,165.3
3129,121.8
3130,138.5
3131,175.8
3132,183.1
3133,145.0
3134,194.6
3135,145.0
3136,124.1
3137,113.1
3138,136.7
3140,90.0
3142,171.6
3143,83.6
3144,162.5
3145,188.1
3150,148.5
3151,99.1
3152,103.5
3154,107.3
3155,132.3
3156,196.0
3158,188.8
3160,139.2
3161,106.8
3165,87.8
3166,102.9
3169,178.0
3171,202.7
3173,99.1
3176,93.4
3178,179.0
3181,170.2
3182,188.7
3183,187.9
3184,164.7
3185,143.7
3186,158.9
3187,205.9
3192,93.9
3193,101.4
3194,170.2
3195,181.3
3198,100.5
3200,194.8
3201,128.4
3203,117.6
3204,188.8
3207,165.1
3208,132.5
3209,151.9
3211,84.2
3212,102.8
3213,93.5
3215,135.2
3219,190.8
3220,155.2
3222,107.0
3227,191.3
3228,103.3
3231,175.4
3233,83.8
3235,103.4
3237,133.7
3238,204.9
3239,153.9
3241,151.4
3242,92.4
3244,157.4
3245,207.3
3247,114.6
3249,168.2
3250,114.9
3251,187.7
3252,87.9
3253,151.0
3254,192.9
3255,138.6
3256,194.9
3257,196.0
3262,178.7
3263,199.8
3264,184.8
3265,90.5
3267,200.1
3268,137.9
3269,183.1
3271,181.2
3272,195.5
3273,169.1
3274,202.4
3276,117.9
3277,105.8
3278,104.0
3279,188.6
3280,103.9
3281,170.2
3284,199.2
3286,129.0
3287,109.1
3289,94.7
3290,185.1
3291,100.8
3294,170.2
3297,116.2
3300,137.7
3301,207.3
3303,199.1
3305,80.7
3306,165.1
3307,108.9
3317,153.2
3318,196.0
3320,176.4
3322,178.3
3323,122.3
3327,87.9
3331,194.5
3332,183.1
3339,160.1
3344,165.1
3348,159.7
3350,208.3
3354,122.3
3356,198.5
3360,170.9
3361,108.5
3362,158.6
3365,96.5
3366,171.1
3367,208.9
3368,183.1
3370,144.1
3371,150.3
3373,91.3
3376,196.3
3377,95.3
3381,170.2
3384,130.4
3386,125.2
3389,86.2
3393,206.7
3394,178.0
3398,153.2
3401,135.8
3402,96.3
3406,157.4
3412,136.0
3413,134.6
3414,131.4
3415,123.0
3416,102.3
3417,192.2
3418,151.9
3419,183.1
3420,119.5
3422,207.0
3428,156.5
3430,114.4
3431,172.8
3432,177.4
3433,156.2
3434,83.0
3435,174.0
3436,145.7
3437,151.0
3440,119.2
3443,154.8
3445,80.4
3447,177.3
3448,209.2
3451,178.0
3453,190.0
3454,82.8
3457,196.0
3458,85.8
3459,81.3
3463,172.9
3464,93.4
3469,185.7
3471,204.8
3473,189.8
3475,157.4
3476,101.6
3480,180.3
3481,170.2
3482,197.5
3483,181.0
3485,202.8
3493,172.8
3494,194.7
3495,111.0
3499,84.2
3500,113.7
3502,154.4
3505,84.5
3506,160.0
3508,109.3
3509,196.8
3511,125.3
3513,105.0
3515,106.8
3516,80.9
3518,183.1
3519,101.8
3521,126.5
3526,85.3
3527,185.2
3529,197.8
3531,172.8
3532,184.7
3542,124.7
3544,157.4
3546,206.5
3547,94.8
3550,195.0
3551,109.4
3552,123.9
3556,193.4
3560,122.7
3561,173.3
3566,196.7
3567,109.4
3568,178.0
3569,132.6
3570,145.6
3574,152.1
3576,152.8
3578,170.4
3580,165.1
3582,107.1
3583,105.2
3585,180.8
3587,105.1
3592,101.1
3594,178.0
3597,190.5
3598,131.2
3601,101.2
3606,162.5
3607,135.5
3609,80.9
3613,149.9
3615,125.1
3616,177.1
3617,150.0
3618,183.1
3619,163.9
3620,95.9
3622,188.1
3627,182.5
3628,177.8
3630,91.8
3631,170.2
3632,194.4
3633,87.5
3634,181.4
3635,177.7
3637,131.1
3639,198.0
3641,159.5
3642,159.9
3643,157.4
3645,203.7
3647,95.3
3649,111.6
3653,144.5
3656,193.4
3659,105.8
3662,142.5
3668,180.5
3669,120.2
3670,128.3
3673,100.8
3675,197.8
3678,129.9
3679,157.4
3681,165.1
3682,192.7
3685,163.3
3686,153.6
3688,197.2
3689,124.4
3691,208.2
3693,178.0
3695,92.7
3701,97.2
3703,131.4
3705,157.4
3706,89.9
3709,109.8
3710,142.6
3718,175.4
3719,110.2
3720,132.1
3722,202.7
3723,191.1
3725,115.6
3726,121.4
3727,166.8
3728,146.1
3729,199.3
3731,167.7
3732,112.7
3733,93.4
3734,197.7
3737,171.2
3738,195.7
3743,149.7
3745,135.3
3746,138.3
3748,179.6
3749,83.4
3750,154.2
3751,100.6
3752,176.4
3753,149.3
3754,114.9
3756,190.8
3757,193.7
3759,115.2
3762,104.8
3766,171.7
3768,175.4
3773,88.2
3774,169.8
3778,191.8
3779,126.1
3780,154.8
3781,121.3
3782,115.2
3783,173.6
3786,98.1
3788,155.6
3789,93.7
3791,110.9
3792,189.4
3793,172.8
3795,147.3
3796,137.4
3797,199.3
3799,139.9
3800,98.2
3801,140.6
3804,206.6
3805,128.7
3806,162.5
3808,176.4
3809,191.8
3813,99.9
3814,92.1
3818,180.5
3819,150.9
3820,172.1
3824,113.1
3825,183.7
3826,121.8
3828,201.1
3829,182.9
3830,167.7
3834,156.8
3838,175.7
3840,206.0
3843,152.2
3844,119.3
3847,150.6
3848,144.0
3849,136.1
3853,162.4
3854,187.8
3856,193.4
3860,105.8
3861,107.2
3863,110.5
3866,102.1
3867,156.6
3868,190.8
3871,152.6
3872,126.1
3874,126.5
3875,160.3
3876,87.4
3880,165.1
3881,124.2
3882,173.1
3885,166.5
3886,204.8
3888,115.7
3889,194.8
3892,123.4
3893,183.1
3895,145.4
3897,182.0
3898,175.6
3899,149.0
3900,187.8
3902,150.4
3904,206.4
3905,165.1
3907,121.7
3909,136.8
3910,183.2
3911,97.5
3916,182.5
3917,175.4
3918,82.3
3920,146.0
3923,131.7
3926,96.3
3927,156.0
3929,101.9
3931,165.1
3935,119.7
3937,108.2
3941,181.4
3943,154.8
3944,193.7
3947,175.8
3954,90.4
3955,196.0
3956,156.1
3957,101.9
3958,100.7
3960,103.9
3962,125.5
3964,178.1
3968,178.0
3971,149.3
3978,125.8
3979,183.5
3980,154.8
3985,201.4
3989,132.7
3990,178.4
3993,178.0
3994,208.6
3995,138.1
3997,151.8
3998,104.5
3999,178.9
4001,194.5
4002,164.0
4003,91.8
4005,162.5
4006,202.9
4007,183.1
4008,111.9
4012,115.6
4015,117.4
4016,154.5
4018,178.0
4019,157.2
4020,182.4
4023,158.7
4027,165.2
4030,167.7
4032,131.3
4034,188.1
4035,137.6
4036,97.5
4039,131.8
4040,114.1
4042,152.2
4047,188.0
4050,124.5
4053,189.1
4054,205.2
4056,190.8
4059,127.0
4064,105.2
4066,88.7
4067,188.7
4068,180.5
4069,164.1
4077,82.4
4079,110.1
4080,165.1
4084,89.7
4087,175.9
4091,91.0
4092,190.8
4093,108.5
4094,128.2
4098,106.1
4101,160.5
4103,97.5
4104,118.7
4105,170.2
4107,140.3
4108,91.3
4111,156.9
4112,129.7
4114,80.8
4116,86.1
4117,175.4
4120,205.5
4121,201.1
4125,98.7
4127,143.2
4130,162.5
4133,84.8
4139,132.0
4141,132.0
4142,200.1
4143,149.7
4147,177.3
4155,193.4
4159,188.0
4160,87.1
4167,185.7
4168,206.8
4173,193.1
4174,130.8
4176,108.4
4179,160.0
4181,148.3
4182,202.1
4183,81.3
4188,154.4
4190,109.7
4191,102.6
4192,115.3
4193,190.8
4199,91.7
4200,187.4
4202,165.7
4204,191.5
4205,167.7
4209,167.5
4211,106.7
4212,192.8
4213,105.8
4216,133.3
4217,175.4
4218,81.6
4220,201.8
4227,160.2
4228,116.8
4229,92.1
4230,170.2
4234,136.6
4236,97.8
4237,106.0
4238,92.9
4240,125.4
4241,197.0
4242,157.4
4244,117.4
4245,199.0
4246,105.6
4254,103.2
4255,190.8
4258,141.1
4259,196.3
4260,148.0
4261,142.0
4263,134.6
4264,199.4
4265,84.1
4268,180.5
4269,191.6
4272,107.1
4273,112.6
4274,118.0
4280,160.0
4281,161.1
4282,85.9
4283,116.1
4284,135.7
4285,89.0
4286,122.6
4287,124.2
4288,146.5
4289,137.4
4291,209.7
4292,188.3
4293,188.7
4294,144.3
4297,160.0
4298,104.5
4299,119.0
4301,103.8
4304,183.1
4306,194.7
4307,117.3
4308,108.5
4309,120.0
4311,180.3
4317,180.5
4318,90.1
4321,144.5
4322,108.5
4323,124.9
4324,181.5
4326,183.5
4328,145.1
4329,130.5
4330,170.2
4333,113.2
4334,154.1
4336,209.7
4338,101.5
4339,193.6
4342,152.2
4345,180.5
4346,128.1
4347,109.3
4348,189.5
4350,97.8
4351,152.7
4353,85.4
4354,169.5
4355,193.4
4357,102.5
4359,147.0
4360,175.4
4361,114.6
4364,164.9
4366,207.3
4367,185.7
4368,80.4
4371,124.1
4373,145.1
4379,170.2
4380,123.8
4385,195.1
4389,142.6
4390,202.7
4391,102.7
4392,196.0
4394,130.8
4395,116.2
4397,121.8
4398,156.7
4404,82.1
4405,178.0
4406,183.8
4408,155.6
4411,108.6
4414,149.4
4417,180.5
4422,114.0
4423,135.6
4426,119.6
4429,175.4
4432,190.0
4434,162.6
4440,175.8
4442,160.0
4443,118.2
4445,139.2
4450,204.3
4451,147.9
4454,115.9
4455,198.5
4456,139.4
4459,131.5
4460,128.8
4461,150.5
4463,138.7
4467,183.1
4472,164.7
4474,191.3
4480,160.0
4486,194.2
4487,113.3
4488,133.8
4489,140.8
4490,168.3
4491,130.4
4492,190.8
4493,110.4
4497,151.9
4498,185.2
4499,205.4
4500,88.7
4502,165.7
4503,194.7
4504,178.0
4505,91.3
4510,128.5
4511,147.3
4515,159.2
4516,183.1
4518,84.4
4519,87.8
4520,138.9
4522,200.2
4523,101.7
4525,189.6
4526,81.4
4527,147.2
4528,123.5
4530,175.4
4532,170.7
4534,164.5
4536,188.9
4537,130.1
4538,117.7
4539,110.7
4540,133.5
4542,154.8
4543,194.7
4544,84.3
4547,196.9
4549,109.6
4550,112.2
4553,114.7
4554,190.8
4555,135.2
4557,146.2
4558,107.5
4559,131.5
4562,163.8
4564,166.6
4565,82.9
4567,180.5
4568,132.6
4569,171.1
4571,195.4
4572,95.6
4575,201.3
4576,103.8
4577,103.8
4579,162.5
4580,133.3
4585,191.5
4586,198.5
4590,163.5
4592,196.0
4593,180.9
4600,159.9
4603,180.2
4604,178.0
4605,138.8
4608,164.1
4611,136.0
4612,108.3
4616,178.8
4617,175.4
4618,167.9
4620,185.1
4621,86.1
4622,141.2
4623,106.7
4624,133.9
4626,119.6
4627,185.7
4628,170.5
4629,172.8
4632,170.2
4634,192.9
4636,145.5
4637,142.6
4639,132.0
4640,176.4
4641,160.0
4642,120.9
4643,209.3
4645,121.9
4647,82.8
4649,167.2
4653,119.3
4654,97.9
4655,198.5
4657,187.7
4658,170.3
4665,87.6
4666,164.2
4667,185.7
4668,152.9
4669,179.4
4670,179.4
4671,150.9
4672,132.2
4674,174.0
4677,83.9
4678,130.8
4679,162.5
4681,104.3
4682,88.0
4683,89.1
4685,179.2
4689,155.1
4691,193.4
4694,205.1
4698,196.5
4699,81.9
4700,104.9
4701,185.2
4704,180.5
4706,155.6
4708,179.7
4710,146.2
4711,160.0
4713,167.5
4715,153.7
4716,172.8
4718,149.7
4719,100.8
4721,95.6
4723,100.0
4724,171.3
4726,205.6
4729,172.8
4730,180.0
4731,180.4
4732,110.3
4733,91.8
4734,175.9
4739,199.9
4740,149.4
4742,162.5
4743,186.9
4746,120.0
4752,114.1
4754,190.8
4756,132.7
4759,118.0
4764,83.9
4766,178.0
4768,173.3
4769,156.9
4770,169.3
4771,166.4
4772,206.4
4773,91.3
4774,180.2
4775,204.5
4779,160.0
4781,119.3
4782,208.6
4783,158.2
4785,82.5
4787,116.7
4788,180.8
4789,159.4
4791,134.4
4792,201.1
4793,83.5
4796,129.4
4797,103.4
4798,160.2
4799,186.5
4800,137.1
4801,80.3
4803,113.6
4804,185.7
4805,158.9
4807,101.1
4808,209.9
4810,110.2
4811,198.6
4812,176.5
4813,116.1
4814,182.2
4816,172.8
4817,185.5
4824,170.7
4825,181.8
4826,170.2
4827,186.9
4828,89.8
4829,170.2
4835,174.2
4836,94.5
4838,141.3
4841,160.0
4842,191.8
4844,80.7
4846,162.4
4847,204.0
4849,115.2
4851,108.8
4854,190.8
4855,94.8
4856,194.8
4857,148.6
4859,192.3
4867,183.1
4870,178.6
4871,199.7
4872,93.4
4874,164.6
4875,112.8
4876,180.4
4879,165.1
4880,199.7
4883,165.6
4884,197.2
4887,165.0
4888,92.1
4889,80.2
4891,201.1
4892,202.1
4896,180.7
4898,94.9
4901,87.1
4902,157.9
4903,180.5
4905,100.3
4907,162.0
4910,85.5
4912,194.4
4913,106.5
4915,146.7
4916,172.8
4919,150.1
4921,147.3
4922,196.8
4925,204.9
4927,88.5
4929,175.4
4932,100.7
4937,99.5
4939,101.5
4941,154.8
4942,203.0
4943,151.5
4945,164.7
4947,180.2
4948,188.3
4949,189.5
4954,185.7
4958,122.4
4959,203.0
4960,165.9
4962,82.5
4965,99.1
4966,172.8
4970,146.0
4971,155.3
4972,124.1
4973,153.4
4978,152.2
4983,163.4
4985,140.7
4987,115.8
4988,89.8
4990,150.2
4992,196.0
4993,135.0
4997,157.0
4999,94.6
5000,158.0
5004,183.1
5009,196.3
5011,191.6
5016,170.2
5021,102.3
5027,141.4
5028,172.8
5029,130.9
5030,82.0
5031,84.3
5032,97.4
5033,82.2
5034,161.2
5038,139.3
5039,162.6
5041,152.2
5042,184.6
5045,209.3
5048,134.8
5051,167.4
5052,194.7
5054,185.7
5056,116.5
5060,108.4
5062,184.4
5063,129.6
5064,164.6
5066,180.5
5067,163.5
5068,123.4
5072,147.8
5073,186.8
5075,143.0
5076,80.8
5079,165.1
5082,103.2
5085,175.7
5088,118.4
5089,166.1
5091,203.7
5094,165.5
5097,118.8
5098,165.5
5100,128.6
5101,133.0
5103,183.1
5104,82.4
5114,91.7
5115,167.7
5119,200.4
5120,204.4
5121,139.6
5125,112.3
5129,172.8
5132,103.7
5139,198.2
5141,160.0
5142,154.1
5145,132.7
5146,186.1
5147,171.5
5149,112.5
5152,129.0
5153,185.7
5156,178.9
5158,80.1
5159,199.4
5166,170.2
5170,118.2
5171,128.8
5173,97.3
5178,152.2
5179,179.4
5182,169.7
5183,85.5
5185,126.1
5186,170.8
5187,135.2
5189,145.2
5190,90.3
5191,193.4
5193,149.3
5197,137.2
5199,127.7
5201,202.4
5202,168.4
5203,183.1
5204,206.2
5206,193.6
5207,187.5
5209,115.4
5212,194.0
5213,146.3
5214,99.1
5216,170.2
5217,125.8
5218,173.2
5219,138.7
5221,144.8
5225,147.3
5226,115.9
5228,180.5
5229,172.6
5231,133.4
5233,209.9
5234,204.9
5240,160.0
5245,110.0
5246,85.0
5247,132.4
5250,140.3
5251,180.8
5252,206.1
5254,180.5
5256,133.0
5264,156.1
5265,96.8
5266,167.7
5267,155.6
5268,153.7
5269,143.0
5270,198.5
5272,195.4
5274,197.7
5276,97.5
5278,165.1
5279,86.6
5281,113.4
5284,158.6
5285,130.3
5286,101.6
5290,133.4
5291,203.7
5292,160.6
5293,81.4
5298,134.2
5299,89.4
5300,139.0
5303,188.3
5304,201.1
5310,155.8
5311,103.0
5312,196.0
5314,129.0
5315,165.1
5316,208.1
5317,198.1
5318,203.2
5319,165.4
5320,100.1
5323,198.9
5324,158.4
5328,175.4
5331,203.7
5335,151.3
5341,162.5
5342,108.0
5345,177.7
5346,175.5
5348,192.5
5349,132.0
5353,185.7
5354,146.9
5357,172.3
5358,138.6
5360,104.3
5361,199.1
5362,136.4
5365,175.4
5366,119.1
5367,112.1
5368,148.3
5370,86.4
5375,203.2
5378,157.4
5379,185.0
5381,196.4
5382,185.7
5383,92.4
5385,106.0
5386,148.6
5387,104.6
5389,179.4
5391,193.4
5395,91.0
5397,208.8
5403,180.5
5404,132.3
5409,83.8
5413,196.6
5415,167.7
5416,117.6
5421,86.5
5423,207.3
5424,170.8
5428,183.1
5429,200.9
5430,99.1
5431,160.2
5436,177.1
5438,88.8
5440,162.5
5442,183.0
5445,176.4
5447,166.0
5448,190.9
5449,193.2
5451,175.0
5453,178.0
5455,153.3
5456,108.3
5457,95.4
5460,106.5
5462,185.5
5463,144.4
5464,99.8
5465,162.6
5466,165.1
5467,150.7
5472,97.2
5475,156.9
5476,150.2
5478,152.2
5479,163.8
5480,188.3
5481,129.9
5482,100.8
5486,182.2
5487,202.2
5488,97.6
5490,193.4
5491,198.1
5492,122.8
5495,206.1
5496,164.4
5498,87.2
5499,103.7
5502,185.7
5503,123.8
5504,110.2
5505,154.1
5506,143.0
5507,135.5
5510,159.1
5512,184.1
5514,160.9
5515,165.1
5519,113.9
5522,197.7
5525,132.1
5527,199.0
5528,178.0
5532,153.9
5534,207.0
5536,181.0
5537,199.8
5538,207.3
5540,160.0
5542,84.4
5548,208.4
5552,128.1
5553,180.5
5556,149.4
5558,194.3
5560,91.1
5561,165.7
5563,112.0
5565,170.2
5567,201.6
5570,138.3
5571,133.1
5572,93.1
5576,148.4
5577,154.8
5578,154.3
5579,207.2
5580,99.9
5582,179.4
5583,199.0
5585,163.5
5586,180.3
5587,190.4
5588,80.9
5591,193.4
5597,112.2
5600,202.1
5601,143.8
5602,95.7
5603,180.5
5604,101.2
5606,109.3
5608,89.4
5609,105.2
5610,165.9
5613,121.0
5614,132.6
5615,157.4
5618,81.7
5619,144.5
5622,144.5
5625,163.5
5626,89.5
5627,178.0
5628,208.8
5629,125.4
5631,109.3
5632,91.2
5633,154.8
5637,166.2
5638,205.6
5639,99.1
5640,162.5
5641,123.4
5642,160.9
5644,188.7
5645,157.7
5647,89.2
5650,105.8
5652,143.0
5653,175.4
5654,107.3
5656,85.2
5657,118.8
5658,103.9
5659,118.2
5661,209.5
5662,115.8
5665,162.5
5670,138.3
5671,151.5
5672,80.0
5674,115.2
5675,136.1
5676,137.7
5678,149.7
5682,204.6
5683,134.1
5686,96.7
5689,109.3
5690,193.4
5691,208.2
5692,200.0
5693,195.0
5695,169.9
5697,141.2
5699,121.8
5700,181.1
5702,183.1
5710,159.1
5711,182.2
5712,161.9
5714,160.0
5715,207.1
5717,169.4
5718,190.9
5719,206.7
5721,91.7
5722,170.4
5725,204.9
5726,101.6
5728,183.1
5730,150.0
5731,125.1
5732,114.8
5736,129.9
5738,206.3
5740,165.1
5741,84.8
5745,185.8
5746,152.6
5750,126.0
5752,178.0
5753,80.2
5755,125.0
5756,176.5
5758,174.8
5760,185.0
5763,121.7
5764,188.6
5765,167.7
5766,113.9
5768,173.4
5770,160.5
5772,167.0
5775,112.4
5777,152.2
5780,166.6
5782,199.8
5784,86.1
5785,143.9
5789,141.5
5790,190.8
5793,86.6
5794,81.5
5796,112.0
5798,187.8
5800,81.6
5801,120.5
5803,178.0
5804,196.1
5805,95.2
5807,115.9
5811,82.4
5814,178.9
5815,157.4
5816,158.5
5821,182.5
5822,151.0
5824,103.2
5825,184.6
5826,83.1
5827,183.1
5829,107.2
5834,129.7
5835,180.0
5838,179.7
5839,178.0
5840,176.0
5841,85.2
5842,146.8
5843,199.0
5847,150.7
5849,131.9
5851,203.3
5852,161.7
5853,180.5
5855,170.1
5856,82.7
5857,137.8
5859,150.3
5863,99.7
5865,167.7
5868,121.8
5870,159.1
5871,123.9
5873,206.2
5874,129.7
5877,149.7
5879,170.0
5881,172.2
5884,106.9
5886,106.5
5890,188.3
5891,110.8
5893,173.7
5895,97.2
5900,87.2
5901,104.7
5902,183.1
5903,208.1
5904,119.0
5905,190.5
5906,145.4
5913,145.9
5914,165.1
5915,86.9
5919,179.9
5925,136.2
5926,85.5
5927,188.3
5933,173.6
5934,158.7
5935,142.8
5938,205.9
5940,175.4
5944,157.6
5945,85.3
5946,168.3
5947,95.3
5948,170.9
5949,92.0
5951,189.1
5952,172.8
5955,186.9
5959,161.8
5962,207.3
5963,192.5
5964,167.7
5965,90.3
5968,106.0
5970,191.3
5971,98.9
5973,130.7
5976,93.0
5977,157.4
5984,123.6
5986,115.8
5989,124.0
5990,196.0
5991,86.1
5993,101.2
5994,131.9
5995,104.2
5996,95.5
5997,157.2
5999,132.4
6000,118.4
6001,139.1
6002,183.1
6003,168.9
6004,208.4
6014,160.0
6017,99.1
6019,120.8
6021,158.1
6022,141.1
6024,80.9
6027,185.7
6028,142.1
6030,115.4
6031,172.5
6032,118.5
6034,174.4
6039,172.8
6041,204.6
6042,87.4
6043,149.1
6045,195.9
6046,180.4
6048,199.4
6050,196.4
6051,90.4
6052,175.4
6053,177.6
6055,117.6
6056,177.0
6058,187.0
6059,154.4
6060,174.8
6063,155.0
6064,134.8
6065,175.4
6066,183.0
6067,184.5
6068,209.7
6069,97.2
6070,133.0
6071,112.3
6073,171.4
6075,154.9
6077,157.4
6079,200.0
6081,127.2
6083,206.9
6086,97.9
6087,130.0
6089,193.4
6092,176.2
6093,119.2
6096,96.9
6097,143.2
6099,152.2
6102,180.5
6103,138.3
6105,108.1
6108,130.5
6112,132.2
6113,123.0
6114,165.1
6117,185.6
6118,131.1
6120,85.4
6122,131.5
6123,136.4
6127,196.0
6128,81.1
6129,85.7
6131,175.0
6132,195.3
6139,178.0
6142,91.4
6143,162.3
6147,114.6
6148,81.0
6149,150.9
6152,175.4
6154,95.7
6155,191.7
6157,156.3
6164,170.2
6165,157.0
6168,208.5
6169,87.6
6171,176.3
6173,163.1
6175,98.6
6176,154.8
6178,97.6
6179,159.1
6180,124.1
6185,169.5
6188,179.8
6190,193.4
6191,139.8
6194,128.2
6197,140.8
6198,157.7
6200,110.1
6201,94.6
6202,185.7
6203,164.4
6208,104.3
6211,131.0
6214,162.5
6215,86.4
6218,173.2
6219,135.9
6222,97.3
6223,205.7
6224,125.3
6226,190.8
6229,185.9
6230,144.1
6231,118.4
6234,121.8
6239,175.4
6240,185.5
6249,207.6
6252,172.8
6255,156.8
6257,97.8
6258,121.5
6260,177.1
6261,205.1
6262,116.6
6263,117.1
6264,167.7
6265,122.8
6266,146.8
6269,96.2
6271,82.1
6277,165.1
6284,152.9
6285,173.4
6286,157.4
6288,125.2
6289,198.5
6290,125.6
6291,107.5
6292,195.2
6293,189.9
6294,179.1
6295,131.8
6298,132.8
6300,192.7
6301,183.1
6311,157.6
6313,160.0
6314,169.2
6315,99.4
6316,144.1
6321,144.4
6322,120.9
6324,133.0
6327,196.0
6331,81.6
6332,206.0
6333,133.1
6334,185.4
6335,189.2
6339,183.1
6343,120.2
6346,135.0
6351,178.0
6353,138.2
6354,118.5
6355,192.3
6357,100.1
6359,134.8
6361,199.8
6362,82.1
6364,170.2
6365,105.6
6368,184.0
6369,88.2
6371,145.5
6372,83.5
6374,128.7
6375,105.9
6376,157.4
6377,80.6
6378,137.4
6379,168.3
6382,162.5
6386,91.7
6387,144.6
6388,92.2
6389,190.8
6390,135.0
6392,125.1
6394,137.2
6395,88.0
6396,96.8
6397,113.2
6398,89.8
6399,111.9
6400,122.4
6401,137.5
6402,185.7
6406,114.5
6407,172.3
6414,167.7
6416,205.9
6422,175.1
6424,127.5
6426,201.1
6430,92.6
6431,185.5
6432,170.3
6433,208.4
6435,140.8
6436,87.1
6438,180.5
6439,173.9
6440,96.0
6441,201.4
6442,90.4
6443,163.6
6444,148.2
6445,154.8
6447,131.7
6448,205.4
6452,170.2
6454,201.8
6455,190.2
6456,132.6
6457,107.9
6458,122.9
6460,195.1
6464,172.8
6465,152.0
6466,105.3
6467,121.9
6468,158.9
6473,114.3
6476,157.4
6479,167.2
6480,139.8
6482,151.1
6483,80.9
6485,169.3
6486,86.4
6487,104.1
6489,193.4
6490,111.6
6491,177.0
6493,142.2
6494,141.6
6495,175.0
6496,150.5
6499,111.8
6501,188.3
6504,80.8
6505,163.5
6507,153.3
6510,101.3
6511,158.5
6512,136.2
6513,167.7
6514,111.4
6515,104.7
6521,186.3
6523,169.7
6525,158.5
6526,201.1
6527,142.3
6528,182.2
6529,97.3
6531,153.5
6533,191.9
6534,117.6
6537,85.2
6539,190.8
6540,192.9
6545,199.8
6547,121.9
6548,179.2
6551,183.1
6552,186.0
6554,201.5
6555,196.5
6559,139.8
6561,160.3
6562,157.2
6563,180.5
6565,104.3
6566,101.5
6567,141.5
6568,110.8
6571,201.3
6572,100.7
6573,173.7
6576,157.4
6578,192.8
6579,164.7
6585,86.1
6586,111.0
6587,103.7
6588,154.8
6589,190.8
6590,112.7
6591,208.9
6596,88.5
6598,160.2
6599,109.6
6600,183.8
6601,188.3
6602,147.1
6603,118.1
6604,107.6
6608,118.6
6611,165.8
6614,170.2
6618,158.6
6622,148.3
6624,195.6
6626,208.8
6628,81.2
6630,167.4
6634,123.1
6635,121.7
6636,90.9
6637,189.6
6638,185.7
6641,169.7
6642,96.5
6644,130.6
6645,198.9
6647,137.5
6649,136.7
6650,169.7
6651,170.2
6654,160.9
6655,106.2
6656,204.7
6657,96.2
6658,80.5
6659,188.2
6660,182.5
6663,208.0
6664,172.8
6665,107.7
6666,100.1
6668,180.5
6670,136.2
6672,161.3
6674,181.3
6675,198.8
6676,162.5
6677,144.1
6679,140.8
6681,108.4
6685,202.1
6688,190.8
6690,133.8
6691,174.4
6696,171.0
6698,84.4
6700,131.8
6701,175.4
6705,200.7
6708,174.9
6711,83.7
6713,152.2
6714,184.3
6719,80.4
6722,152.6
6724,86.8
6725,129.2
6726,193.4
6729,84.5
6731,159.9
6732,102.0
6733,145.4
6734,119.6
6738,180.5
6740,161.9
6744,91.0
6746,187.1
6747,163.2
6748,182.8
6750,118.7
6751,170.2
6752,87.0
6753,196.7
6762,115.1
6763,178.0
6764,167.8
6765,192.9
6768,141.5
6771,178.6
6774,145.8
6775,154.8
6777,135.6
6778,134.6
6779,128.3
6781,200.4
6782,189.4
6786,135.9
6788,100.8
6789,180.5
6791,189.6
6794,111.9
6795,132.6
6798,184.6
6799,166.1
6800,126.4
6801,170.2
6803,190.1
6805,185.2
6808,132.5
6810,204.2
6813,165.1
6818,114.1
6820,133.5
6821,89.2
6822,154.6
6823,114.7
6824,157.4
6825,203.7
6830,163.9
6831,107.2
6838,188.3
6839,148.0
6841,108.3
6842,156.3
6844,180.1
6846,168.3
6847,177.3
6850,189.0
6851,170.2
6852,172.0
6853,189.5
6857,157.8
6860,90.1
6861,157.8
6862,171.8
6863,178.0
6867,135.5
6868,156.6
6872,160.6
6875,120.9
6876,160.0
6877,120.8
6878,192.7
6879,157.6
6882,184.1
6888,183.1
6890,107.0
6892,187.1
6894,180.8
6895,136.7
6896,108.1
6898,97.1
6900,175.4
6901,108.9
6903,156.8
6904,196.1
6905,93.2
6906,93.1
6908,173.4
6911,156.1
6913,157.4
6914,201.5
6915,149.4
6916,164.6
6917,165.9
6918,198.3
6920,122.8
6922,117.5
6923,201.3
6924,109.6
6926,193.4
6930,82.1
6933,171.0
6934,103.7
6935,138.6
6936,176.4
6937,208.4
6938,180.5
6939,193.8
6942,97.9
6944,105.1
6946,156.9
6947,149.0
6949,199.0
6950,167.7
6951,202.1
6952,119.0
6954,187.5
6956,200.8
6957,101.0
6959,131.7
6960,139.9
6961,145.5
6963,180.5
6968,143.9
6969,190.1
6971,180.7
6972,148.4
6973,198.2
6974,96.7
6975,165.1
6976,138.5
6977,163.6
6979,164.4
6983,87.5
6988,183.1
6990,165.4
6993,206.4
6995,117.7
6996,130.4
7000,86.4
7001,172.8
7006,170.7
7008,208.4
7010,106.0
7011,174.0
7013,152.2
7015,154.8
7016,128.1
7019,119.8
7021,177.2
7025,196.0
7026,154.7
7028,149.7
7035,193.1
7037,190.8
7038,115.2
7039,83.2
7040,168.3
7042,147.0
7043,169.3
7045,161.1
7049,153.8
7051,170.2
7052,183.6
7054,105.1
7056,168.2
7063,180.5
7066,111.4
7068,80.5
7069,160.7
7071,199.4
7072,100.0
7073,131.3
7074,95.5
7075,160.0
7080,189.1
7083,87.7
7084,194.4
7088,178.0
7089,134.2
7091,129.9
7093,97.2
7098,92.9
7100,172.8
7101,121.9
7102,197.1
7108,175.2
7109,169.0
7110,132.8
7112,160.0
7116,116.1
7118,144.9
7119,200.5
7125,203.1
7126,198.5
7130,121.9
7131,177.7
7132,126.6
7133,144.2
7135,93.0
7136,205.6
7137,113.1
7138,180.5
7139,136.0
7140,80.7
7142,86.8
7143,148.1
7145,123.9
7147,182.3
7148,133.9
7149,149.0
7150,162.5
7151,97.3
7152,168.8
7153,126.5
7154,133.9
7155,125.9
7158,122.3
7162,180.5
7165,100.0
7166,195.9
7167,192.0
7170,113.8
7171,180.1
7172,156.5
7174,141.4
7175,167.7
7176,118.5
7177,98.7
7178,190.2
7179,106.2
7180,148.8
7185,198.6
7186,209.8
7188,183.1
7192,82.2
7193,180.8
7196,188.7
7200,170.2
7203,186.7
7204,192.7
7208,174.9
7209,138.8
7210,204.6
7212,133.1
7213,149.7
7219,85.9
7220,160.9
7221,185.3
7222,114.8
7223,199.1
7225,188.3
7226,146.7
7229,133.5
7230,102.5
7231,183.7
7232,123.3
7234,86.3
7237,178.0
7239,159.5
7241,149.5
7245,84.0
7246,159.1
7248,193.4
7250,162.5
7254,177.1
7256,107.6
7257,166.8
7261,81.6
7262,180.1
7263,185.7
7264,162.9
7268,187.1
7269,141.8
7272,143.0
7274,189.8
7275,160.0
7276,186.8
7278,154.9
7282,143.3
7283,189.3
7285,123.8
7286,99.9
7287,170.2
7294,114.9
7296,107.3
7297,130.6
7299,115.1
7300,162.5
7301,81.7
7304,121.3
7305,85.5
7306,106.6
7308,178.0
7310,129.1
7311,169.9
7312,152.2
7315,118.9
7316,146.2
7317,207.9
7318,154.5
7321,144.8
7323,163.1
7324,109.0
7325,196.0
7327,112.7
7329,82.4
7330,123.8
7332,187.7
7334,179.0
7337,180.5
7338,85.9
7339,165.5
7340,136.2
7345,101.9
7346,160.2
7347,115.1
7348,164.6
7350,160.0
7351,185.1
7353,85.8
7356,110.3
7357,91.7
7359,198.5
7361,158.1
7362,180.5
7366,179.2
7367,123.2
7368,116.4
7369,189.4
7373,82.3
7374,167.7
7381,104.9
7382,120.6
7388,180.5
7389,85.3
7392,92.5
7393,176.7
7394,166.4
7395,141.3
7397,149.2
7399,139.8
7400,172.8
7401,159.3
7403,204.2
7409,94.8
7410,120.1
7412,154.8
7413,146.8
7415,135.3
7416,114.7
7417,198.2
7418,147.9
7419,100.7
7420,80.5
7421,147.9
7423,174.1
7425,188.3
7428,189.1
7430,121.6
7431,163.4
7434,193.6
7437,178.0
7446,170.5
7450,157.4
7451,184.8
7452,115.9
7454,154.2
7459,100.7
7461,164.1
7462,180.5
7463,108.6
7464,206.2
7466,135.8
7467,175.8
7470,126.9
7475,172.8
7476,151.3
7481,173.1
7484,178.4
7487,175.4
7488,101.5
7489,134.6
7495,142.5
7498,200.7
7499,165.1
7505,107.3
7507,190.4
7508,137.6
7510,171.0
7511,129.9
7512,152.2
7516,103.6
7517,156.7
7524,165.4
7525,190.8
7526,163.5
7529,168.6
7531,128.3
7533,207.6
7537,180.5
7540,148.9
7541,196.2
7542,179.4
7544,140.9
7549,157.4
7550,145.1
7554,118.3
7556,99.1
7558,129.6
7561,127.0
7562,180.5
7563,124.2
7567,120.6
7571,161.0
7574,170.2
7575,157.2
7576,83.0
7579,134.7
7581,99.9
7582,97.4
7583,174.2
7584,108.6
7585,141.6
7587,180.5
7589,138.5
7590,145.3
7591,155.3
7592,207.5
7595,194.9
7596,109.6
7597,168.3
7599,154.5
7600,172.8
7602,84.7
7605,185.6
7607,179.2
7608,135.7
7609,187.1
7612,152.2
7613,193.5
7615,172.9
7618,161.6
7619,138.2
7621,167.2
7624,188.3
7625,151.8
7626,185.3
7630,208.0
7634,155.5
7635,171.4
7636,175.4
7637,89.2
7638,182.8
7639,134.7
7640,120.8
7641,106.3
7643,148.2
7646,208.5
7647,194.2
7648,150.8
7649,161.2
7650,152.2
7653,85.2
7655,138.8
7656,107.3
7659,146.8
7660,125.9
7661,88.4
7662,183.1
7665,144.2
7666,87.6
7670,155.5
7672,128.0
7674,165.1
7675,208.4
7676,179.1
7677,161.5
7682,101.8
7684,187.5
7685,107.3
7686,114.3
7687,170.2
7690,146.5
7691,133.4
7692,148.3
7693,192.0
7694,204.7
7695,169.1
7697,131.8
7698,99.6
7699,162.5
7700,157.2
7701,168.6
7704,103.5
7706,201.6
7709,182.2
7711,144.5
7712,158.3
7715,162.2
7716,123.4
7717,91.5
7721,194.2
7724,151.1
7725,180.5
7729,100.1
7730,153.7
7733,182.6
7734,148.0
7736,130.3
7737,175.4
7738,165.2
7740,179.1
7742,146.4
7743,97.4
7744,185.1
7746,164.4
7749,157.4
7750,143.5
7754,199.0
7755,130.4
7758,178.9
7759,205.5
7761,188.3
7762,84.8
7764,95.4
7766,139.1
7768,97.2
7769,142.5
7772,99.1
7774,162.5
7777,152.1
7778,130.4
7783,158.9
7785,110.0
7787,167.7
7788,115.7
7789,171.8
7792,166.2
7793,190.4
7794,166.0
7795,159.0
7796,139.0
7798,86.0
7799,167.7
7800,172.8
7802,85.8
7803,143.8
7804,139.8
7806,159.8
7807,192.1
7808,181.8
7812,157.4
7814,192.5
7823,209.6
7824,190.8
7826,104.8
7828,126.1
7830,138.0
7832,184.0
7836,180.5
7839,137.5
7842,176.2
7844,179.6
7846,189.2
7849,157.4
7851,165.6
7852,194.4
7854,93.0
7855,122.8
7860,162.2
7862,183.1
7863,168.6
7865,179.8
7866,137.2
7868,197.7
7872,126.5
7873,163.7
7874,167.7
7875,148.2
7877,160.3
7881,167.8
7882,176.1
7884,147.2
7886,167.7
7891,172.4
7896,116.4
7897,85.8
7898,127.8
7899,162.5
7902,146.2
7903,107.2
7904,206.3
7906,120.5
7908,120.1
7910,142.8
7911,142.0
7912,86.7
7913,199.6
7914,93.3
7915,99.8
7916,109.5
7917,164.3
7918,122.0
7920,86.4
7922,132.1
7924,175.4
7925,208.8
7928,94.8
7930,161.6
7932,131.2
7933,201.5
7935,149.4
7937,165.1
7941,89.7
7942,84.9
7946,163.1
7948,194.2
7949,152.2
7950,138.5
7951,138.0
7952,86.9
7953,194.7
7956,110.2
7959,206.6
7960,184.6
7961,185.7
7962,161.6
7970,126.4
7971,146.6
7973,170.2
7974,114.2
7977,206.9
7978,154.7
7984,118.1
7985,198.9
7986,208.7
7987,162.5
7988,186.5
7989,135.0
7991,191.3
7993,204.0
7994,185.9
7995,88.6
7998,108.3
7999,157.4
8003,97.5
8008,121.5
8009,108.4
8010,144.8
8011,147.1
8013,166.0
8016,192.9
8017,126.2
8019,202.8
8020,127.6
8022,171.8
8024,188.3
8026,100.8
8029,198.3
8030,167.0
8031,166.1
8035,110.4
8036,172.8
8038,146.2
8040,205.0
8042,180.6
8043,107.1
8044,84.9
8045,153.4
8046,91.5
8047,152.7
8048,199.8
8049,154.8
8051,166.0
8053,163.5
8054,209.5
8057,109.5
8059,102.8
8060,91.8
8061,183.1
8062,191.1
8063,175.7
8065,89.0
8069,125.1
8074,167.7
8077,176.1
8078,149.9
8079,155.8
8080,183.6
8081,83.1
8086,162.5
8088,140.7
8089,106.9
8090,117.9
8091,130.0
8092,141.2
8093,113.1
8095,103.0
8096,95.9
8097,176.6
8098,165.1
8102,154.4
8103,150.8
8105,164.5
8108,199.8
8111,144.5
8112,143.3
8113,176.3
8115,200.0
8123,159.3
8124,172.8
8125,135.2
8128,137.5
8131,123.8
8132,203.3
8133,196.7
8134,90.0
8136,162.5
8137,166.4
8138,132.6
8142,151.7
8147,163.9
8148,144.5
8149,202.6
8150,195.9
8151,92.9
8153,182.4
8159,119.0
8161,183.1
8164,115.5
8166,142.3
8168,170.9
8169,87.6
8170,156.8
8171,186.2
8173,172.8
8175,106.4
8176,143.3
8180,138.5
8182,83.4
8184,209.5
8186,160.0
8187,156.9
8188,173.5
8191,96.3
8192,132.7
8197,166.4
8199,162.5
8200,209.6
8206,206.2
8208,180.2
8211,142.0
8213,83.7
8214,99.7
8218,205.0
8219,162.5
8220,206.0
8221,177.4
8223,178.0
8225,154.8
8227,164.0
8229,130.0
8231,186.5
8232,95.2
8236,175.4
8237,195.8
8238,134.0
8240,138.8
8243,96.0
8245,177.0
8247,208.7
8248,133.8
8249,154.8
8253,203.8
8255,80.2
8256,209.7
8258,177.1
8259,199.0
8261,190.8
8264,116.1
8266,185.5
8267,199.8
8268,97.5
8269,190.4
8270,96.6
8271,168.4
8273,167.7
8274,207.3
8276,114.9
8278,156.5
8280,85.2
8283,197.0
8285,107.1
8286,157.4
8287,136.9
8288,135.0
8291,108.7
8292,134.7
8295,126.6
8297,176.2
8298,162.5
8300,92.2
8302,192.4
8306,159.9
8307,122.6
8309,162.6
8310,152.2
8312,115.9
8313,132.5
8314,115.7
8315,83.5
8319,101.3
8320,111.9
8323,191.6
8324,178.0
8325,88.1
8327,119.5
8331,131.4
8334,126.9
8336,162.5
8339,194.6
8341,98.2
8342,185.2
8344,185.8
8345,94.3
8346,129.9
8347,143.7
8348,142.0
8351,96.7
8360,180.5
8365,108.4
8367,153.8
8370,181.7
8371,126.4
8372,197.6
8373,170.2
8374,129.6
8375,159.6
8377,123.5
8378,155.7
8379,100.5
8380,103.8
8383,169.1
8385,128.8
8386,160.0
8387,194.5
8390,185.5
8391,118.8
8396,85.8
8397,108.1
8398,170.2
8401,191.6
8402,183.1
8403,185.9
8404,122.0
8405,206.5
8407,176.6
8408,123.5
8409,88.3
8410,173.9
8411,149.7
8412,107.1
8413,201.8
8415,205.9
8416,181.3
8418,200.3
8420,113.3
8423,172.8
8425,151.4
8426,142.5
8427,103.5
8432,198.4
8434,109.7
8435,162.5
8436,80.1
8437,140.9
8438,111.4
8441,110.3
8443,112.8
8444,127.0
8446,129.1
8447,176.1
8448,90.9
8449,152.2
8451,169.3
8453,118.0
8455,187.8
8456,99.3
8457,92.1
8458,113.9
8460,181.6
8461,196.0
8463,139.5
8464,147.2
8465,156.7
8466,121.2
8467,88.3
8468,193.7
8471,81.1
8473,178.0
8476,81.8
8477,121.9
8478,111.7
8479,144.4
8485,160.0
8487,136.6
8489,92.3
8492,105.3
8494,170.8
8498,167.7
8499,184.6
8500,145.3
8502,87.8
8504,174.0
8506,149.7
8508,205.5
8510,152.2
8511,91.2
8517,106.8
8518,91.0
8521,92.0
8522,88.4
8523,175.4
8524,109.7
8528,142.6
8532,133.6
8534,162.1
8536,167.7
8538,202.9
8539,81.9
8541,183.8
8542,90.1
8543,139.3
8546,85.9
8548,147.1
8550,167.3
8551,162.0
8555,121.6
8556,119.2
8557,123.0
8559,139.0
8560,185.7
8561,86.9
8562,163.5
8563,164.7
8564,80.3
8567,192.3
8569,186.9
8572,172.8
8573,165.4
8577,111.8
8581,185.1
8583,89.4
8586,157.4
8587,202.5
8589,103.3
8590,176.6
8595,81.6
8596,84.3
8598,172.8
8599,104.0
8602,87.0
8606,204.7
8609,136.1
8610,157.4
8611,123.6
8613,164.1
8616,202.5
8617,198.3
8620,82.5
8621,122.4
8623,175.4
8626,188.0
8630,101.9
8632,176.3
8633,92.5
8635,160.0
8636,182.5
8638,83.6
8639,133.2
8640,84.8
8643,121.0
8644,113.3
8648,144.5
8650,176.0
8651,153.6
8652,82.5
8654,207.8
8660,185.7
8661,132.2
8664,196.1
8665,106.8
8666,176.2
8667,98.3
8669,97.6
8673,185.7
8674,97.8
8677,84.9
8684,208.9
8685,162.5
8686,110.2
8691,207.1
8693,97.0
8695,166.4
8697,172.8
8698,86.1
8703,129.1
8704,165.2
8705,92.4
8707,166.2
8708,159.8
8709,86.0
8710,152.2
8713,89.8
8716,178.6
8717,113.3
8719,119.9
8721,109.1
8722,93.1
8723,170.2
8726,109.6
8727,102.7
8728,103.6
8729,129.2
8732,206.5
8733,183.6
8735,162.5
8736,100.6
8743,175.3
8748,152.2
8750,113.0
8752,188.2
8755,133.5
8756,116.8
8759,96.4
8760,188.3
8761,119.6
8770,145.1
8771,118.8
8772,175.4
8774,184.5
8775,159.2
8776,135.7
8780,80.6
8782,114.3
8784,146.6
8785,152.2
8786,135.8
8789,114.8
8790,176.9
8791,174.9
8793,155.8
8794,126.4
8798,172.8
8799,136.8
8801,139.0
8806,167.1
8807,161.3
8808,192.7
8810,157.4
8811,111.5
8812,166.0
8813,151.5
8816,161.3
8819,103.1
8821,141.3
8822,178.0
8824,110.2
8826,132.6
8827,180.7
8829,123.5
8832,103.1
8833,129.9
8835,162.5
8836,204.8
8838,128.2
8840,123.2
8842,190.1
8846,114.8
8848,144.5
8849,179.3
8850,130.7
8853,100.5
8855,182.4
8857,193.4
8858,146.4
8859,160.5
8860,183.1
8861,134.2
8862,119.0
8866,114.7
8867,181.8
8870,128.0
8871,112.4
8872,170.2
8873,190.4
8874,170.7
8879,100.7
8880,194.2
8882,181.1
8883,203.4
8885,162.5
8888,200.1
8889,131.2
8891,173.6
8893,166.7
8894,123.9
8895,153.0
8896,170.8
8897,183.1
8898,171.0
8900,133.0
8902,179.0
8903,194.5
8907,155.0
8909,160.0
8911,195.5
8912,177.2
8921,100.0
8922,106.3
8923,170.2
8924,198.4
8926,178.1
8929,130.5
8932,200.1
8935,157.4
8937,99.6
8940,93.4
8942,141.7
8943,100.4
8944,139.5
8947,147.1
8958,163.8
8959,201.4
8960,190.8
8961,203.6
8970,176.8
8971,151.1
8972,178.0
8974,109.2
8975,115.3
8979,202.2
8984,117.3
8985,154.8
8986,151.3
8987,145.0
8990,135.8
8991,166.9
8993,83.4
8995,182.0
8996,131.1
8997,175.4
8999,150.0
9000,118.5
9004,141.2
9005,163.1
9007,160.1
9008,177.8
9010,160.0
9011,178.7
9012,182.4
9013,90.0
9015,92.5
9017,191.9
9019,167.6
9020,145.0
9021,93.2
9022,172.8
9024,196.6
9025,147.0
9026,105.6
9027,140.0
9029,83.8
9032,83.0
9034,165.1
9038,184.8
9041,141.6
9042,129.3
9045,141.3
9046,101.6
9048,147.1
9049,187.9
9050,80.5
9053,92.4
9054,149.7
9055,135.1
9057,142.7
9059,152.0
9060,185.7
9070,172.5
9071,152.3
9072,170.2
9076,98.2
9077,175.1
9078,154.6
9081,95.3
9082,207.3
9084,152.2
9086,207.3
9087,131.8
9088,105.5
9089,179.9
9090,181.8
9092,137.5
9093,103.9
9094,163.5
9095,189.0
9097,178.0
9101,177.3
9102,208.9
9103,162.3
9104,130.5
9107,171.3
9109,170.2
9111,124.8
9118,132.7
9119,199.2
9121,104.9
9122,175.4
9123,94.2
9124,98.0
9125,201.0
9126,191.9
9127,156.5
9128,196.9
9129,81.5
9130,131.4
9135,162.5
9138,154.4
9143,145.7
9147,144.5
9148,166.4
9149,209.2
9151,94.3
9157,163.5
9158,171.3
9159,185.7
9161,129.8
9162,118.0
9167,139.8
9168,160.7
9169,138.7
9171,178.0
9172,167.4
9173,133.5
9181,195.6
9182,109.1
9183,122.7
9184,158.0
9185,160.0
9187,84.3
9188,204.3
9190,94.0
9191,125.5
9192,180.5
9195,83.6
9196,132.2
9197,183.1
9198,173.4
9200,153.8
9201,115.4
9204,156.1
9207,179.0
9209,165.1
9212,90.6
9215,109.4
9216,115.4
9218,115.3
9220,141.9
9221,166.6
9222,172.8
9227,188.3
9228,165.4
9232,106.7
9233,169.1
9234,165.1
9235,149.4
9236,93.1
9238,85.9
9239,153.2
9240,183.6
9241,114.5
9242,174.7
9247,152.2
9248,204.2
9254,192.4
9255,144.2
9256,108.1
9257,89.6
9259,112.6
9260,185.7
9263,150.8
9267,93.5
9268,81.4
9269,116.8
9271,165.1
9272,170.2
9275,156.7
9276,165.5
9277,180.3
9278,86.2
9280,120.5
9281,196.9
9282,101.0
9284,152.2
9285,198.5
9290,99.6
9291,153.0
9292,194.6
9296,183.1
9298,190.9
9300,200.4
9302,132.5
9303,150.8
9305,84.3
9309,170.2
9311,205.4
9313,193.9
9314,158.3
9315,112.0
9316,98.8
9317,204.1
9318,180.1
9321,113.5
9322,167.7
9323,196.4
9324,201.5
9327,119.3
9330,113.9
9332,100.3
9333,87.8
9334,160.0
9335,121.5
9337,89.7
9338,88.0
9339,142.1
9340,208.0
9344,92.5
9347,139.4
9349,188.9
9351,200.7
9352,93.0
9356,199.7
9357,129.7
9358,90.4
9359,178.0
9361,182.3
9362,92.9
9364,171.2
9367,91.2
9368,144.4
9370,106.4
9371,170.2
9377,97.6
9383,171.7
9384,154.8
9386,155.8
9388,120.2
9392,190.2
9393,82.1
9395,97.6
9396,197.8
9397,185.7
9398,167.0
9401,80.6
9402,206.2
9404,147.7
9406,184.4
9408,91.5
9409,165.1
9410,92.0
9411,97.2
9412,149.4
9413,190.6
9415,118.9
9417,97.8
9418,143.0
9420,170.6
9421,165.1
9430,180.4
9431,159.0
9432,206.1
9433,141.9
9434,160.0
9436,146.3
9439,143.8
9440,118.3
9441,135.7
9443,158.7
9444,111.0
9445,182.5
9446,90.4
9447,154.8
9451,199.3
9454,144.9
9455,159.9
9457,94.5
9458,208.2
9459,190.8
9462,95.9
9463,155.1
9465,117.2
9466,112.4
9468,99.7
9469,125.3
9470,194.0
9472,172.8
9476,89.9
9479,110.9
9482,199.6
9484,149.7
9485,108.3
9486,86.7
9487,157.6
9488,136.3
9489,166.0
9492,130.5
9496,185.7
9497,132.8
9498,112.9
9500,124.8
9504,101.7
9505,122.0
9508,172.8
9510,178.5
9513,144.6
9514,120.5
9515,89.8
9516,98.1
9519,127.2
9522,170.2
9524,143.3
9525,185.1
9526,201.5
9527,140.7
9528,150.6
9530,171.6
9532,115.9
9533,148.3
9534,167.7
9538,198.3
9541,135.4
9546,144.5
9547,158.6
9549,145.9
9553,207.7
9555,157.7
9556,207.6
9557,84.0
9559,175.4
9562,93.8
9565,208.8
9567,171.1
9570,124.3
9571,165.1
9575,138.7
9576,202.1
9579,199.2
9580,107.1
9581,127.3
9582,145.6
9584,149.7
9585,195.2
9589,190.7
9590,104.0
9594,163.0
9595,91.2
9596,185.7
9597,100.3
9598,132.5
9600,178.9
9604,127.0
9606,127.7
9609,172.8
9612,113.7
9613,193.6
9616,141.9
9618,166.2
9619,90.8
9621,162.5
9622,191.7
9623,165.0
9626,115.7
9628,189.0
9629,80.7
9633,160.0
9638,186.4
9640,146.2
9647,147.1
9648,204.2
9649,134.7
9650,103.4
9652,85.3
9654,171.1
9656,137.9
9657,185.0
9659,180.5
9663,194.0
9666,80.4
9667,163.0
9671,175.4
9674,185.7
9675,133.2
9678,157.9
9679,167.4
9680,208.5
9681,184.5
9682,93.0
9683,152.2
9684,97.6
9685,98.3
9686,141.3
9687,101.9
9688,145.2
9690,94.5
9695,125.7
9696,188.3
9697,183.1
9698,101.0
9703,109.8
9704,151.8
9708,175.4
9710,103.5
9712,152.3
9713,116.9
9714,149.7
9715,141.2
9716,192.6
9717,148.4
9718,126.5
9721,167.7
9722,158.8
9725,157.4
9730,84.2
9732,115.5
9733,85.1
9734,170.2
9735,177.7
9736,114.8
9738,158.7
9739,95.1
9740,128.5
9741,181.6
9746,152.2
9748,171.6
9750,201.7
9758,183.1
9759,125.1
9762,83.9
9764,190.9
9765,180.7
9766,105.3
9767,205.7
9769,202.7
9771,170.2
9772,200.6
9773,101.4
9775,163.6
9777,157.0
9779,200.1
9783,81.0
9784,144.5
9785,200.8
9787,117.6
9789,163.1
9790,201.7
9791,126.7
9792,143.6
9793,207.5
9794,157.8
9795,140.4
9796,185.7
9797,111.2
9799,96.6
9801,150.3
9805,190.7
9807,83.1
9808,172.8
9809,119.0
9810,160.9
9812,198.3
9813,172.6
9814,122.8
9815,119.2
9817,159.7
9820,193.3
9821,157.4
9823,96.4
9824,179.1
9826,178.9
9829,92.4
9830,165.3
9831,117.4
9833,160.0
9837,152.2
9838,184.0
9839,117.4
9842,194.9
9843,96.8
9845,84.7
9846,144.5
9851,91.1
9852,146.3
9853,152.2
9854,159.3
9856,82.9
9858,108.9
9859,178.0
9862,124.8
9863,207.6
9864,152.7
9866,172.3
9869,83.2
9871,162.5
9873,209.4
9874,140.4
9875,156.1
9876,95.0
9882,99.0
9883,147.1
9884,108.8
9886,165.9
9887,174.3
9889,173.4
9890,112.6
9895,180.5
9897,199.3
9899,111.1
9902,173.7
9906,157.5
9907,81.8
9908,167.7
9909,185.9
9912,151.8
9914,204.5
9915,198.9
9917,182.0
9918,157.0
9921,160.0
9923,119.8
9927,179.9
9930,150.8
9931,116.2
9933,167.7
9934,154.9
9937,175.8
9938,188.4
9939,158.4
9941,135.9
9942,162.9
9946,152.2
9948,169.6
9954,126.7
9955,99.9
9956,159.0
9957,150.6
9958,180.5
9962,81.9
9963,88.7
9964,86.3
9966,123.1
9968,139.8
9969,110.4
9970,167.7
9973,178.3
9974,128.3
9975,196.2
9976,90.8
9977,121.4
9978,137.7
9979,92.1
9982,108.9
9983,166.3
9984,160.0
9985,89.0
9986,156.4
9987,151.7
9989,98.2
9990,108.6
9991,82.7
9996,198.5
9997,116.4
9998,142.3
10000,131.8
10001,159.8
10004,163.2
10006,190.4
10007,118.4
10008,190.8
10010,119.2
10013,180.6
10014,144.9
10015,198.2
10018,122.0
10019,193.9
10020,81.2
10021,170.2
10022,116.7
10028,103.9
10030,176.7
10032,197.1
10034,102.6
10035,198.5
10038,119.2
10039,80.6
10041,84.1
10042,90.4
10047,172.2
10048,120.0
10049,180.5
10050,173.6
10051,124.5
10052,202.5
10053,131.8
10059,94.0
10062,154.8
10076,193.4
10077,149.5
10078,121.0
10079,116.6
10080,204.4
10083,200.7
10084,129.9
10085,188.4
10086,153.2
10087,129.2
10088,101.1
10089,175.4
10090,101.4
10092,138.8
10093,111.1
10095,179.2
10096,108.8
10097,98.8
10099,183.3
10101,167.8
10102,154.8
10105,117.8
10106,103.6
10107,108.9
10108,90.7
10110,163.2
10111,199.8
10112,98.1
10114,130.3
10115,86.0
10117,185.7
10119,82.6
10121,187.7
10122,158.7
10126,131.0
10127,197.6
10130,170.2
10134,169.7
10136,158.0
10137,137.5
10138,92.9
10140,118.4
10141,100.4
10142,98.0
10143,154.8
10145,97.0
10147,119.3
10152,132.9
10153,150.4
10154,180.0
10155,197.7
10156,126.7
10157,188.3
10159,111.3
10162,102.9
10163,132.8
10168,158.5
10170,167.7
10173,141.7
10174,208.8
10175,80.6
10176,108.8
10178,96.4
10179,126.1
10180,84.3
10183,108.0
10184,149.7
10185,189.1
10186,156.2
10191,145.0
10192,119.3
10193,181.4
10195,186.8
10197,81.0
10198,180.5
10203,99.7
10206,134.3
10207,167.3
10209,86.3
10211,170.2
10213,154.9
10215,163.6
10216,107.5
10217,160.5
10218,143.6
10219,143.3
10221,158.5
10224,162.5
10225,80.3
10227,164.0
10230,103.9
10234,155.6
10235,124.4
10237,185.7
10238,92.9
10239,99.0
10242,189.4
10245,129.0
10246,173.3
10247,116.5
10248,144.0
10251,146.8
10252,172.8
10253,127.9
10256,206.1
10257,120.2
10261,174.5
10262,155.3
10264,160.8
10265,160.0
10269,196.8
10271,109.5
10274,117.1
10276,181.4
10277,174.5
10278,170.2
10282,207.1
10283,97.8
10285,110.5
10288,205.1
10290,164.6
10291,140.9
10292,172.8
10296,199.1
10297,149.5
10299,89.8
10300,123.1
10302,117.7
10305,165.1
10307,175.4
10308,188.9
10314,137.7
10315,181.7
10316,95.4
10317,118.4
10318,178.4
10319,172.8
10321,105.5
10322,159.9
10330,198.6
10331,199.6
10333,183.1
10336,167.1
10338,206.6
10339,135.6
10341,134.7
10342,135.6
10343,87.6
10345,103.0
10346,172.8
10347,141.2
10348,196.5
10353,134.4
10355,96.3
10358,181.9
10359,160.0
10366,100.8
10369,91.3
10371,171.0
10373,183.1
10375,121.7
10379,151.2
10380,132.9
10382,89.6
10383,173.8
10384,87.8
10386,97.2
10387,175.4
10388,89.0
10390,94.8
10392,142.2
10393,151.1
10396,200.6
10399,83.1
10400,154.8
10401,161.8
10403,142.1
10404,135.6
10407,123.6
10408,97.6
10409,105.8
10412,143.2
10414,183.1
10415,150.1
10417,156.2
10419,89.3
10420,97.9
10421,186.4
10422,147.2
10423,117.0
10427,178.0
10428,146.6
10431,133.8
10436,198.5
10437,90.9
10439,117.2
10440,160.0
10441,99.8
10444,120.5
10445,82.8
10447,83.8
10448,177.0
10449,139.0
10450,123.8
10451,198.1
10452,154.1
10454,149.9
10455,190.8
10456,198.0
10457,99.3
10459,111.6
10464,170.6
10466,106.9
10468,167.7
10474,113.8
10476,124.8
10477,165.6
10479,145.3
10481,139.4
10483,129.4
10490,159.6
10491,96.5
10493,142.2
10494,172.8
10496,205.4
10499,172.8
10501,93.4
10503,165.7
10504,106.2
10508,168.8
10509,160.0
10510,133.7
10511,154.1
10512,194.7
10513,124.3
10514,107.3
10516,148.1
10518,85.4
10520,92.8
10522,136.8
10524,115.7
10525,193.2
10527,185.9
10528,184.5
10529,101.3
10532,135.6
10533,118.1
10534,136.0
10535,162.5
10537,192.6
10538,194.0
10539,193.3
10541,127.9
10542,184.7
10546,143.4
10547,209.1
10549,147.1
10551,121.1
10552,124.9
10553,205.1
10555,198.2
10556,143.6
10557,188.5
10558,167.4
10561,120.8
10562,129.1
10564,177.7
10565,159.8
10567,207.1
10569,113.8
10573,137.4
10574,118.2
10576,160.0
10577,135.4
10578,101.4
10579,185.8
10580,155.1
10581,172.1
10583,188.0
10586,82.8
10590,144.5
10595,132.9
10597,98.0
10598,80.8
10599,133.7
10600,96.8
10601,153.8
10603,131.7
10606,122.5
10615,149.4
10616,147.1
10617,123.4
10619,94.3
10620,186.4
10621,87.1
10622,134.8
10623,96.4
10624,138.2
10625,134.3
10627,144.0
10629,157.6
10630,136.8
10633,110.1
10636,121.5
10638,82.8
10639,137.3
10640,181.1
10641,113.5
10642,194.1
10643,192.6
10644,136.8
10645,89.5
10646,154.8
10647,119.2
10648,192.9
10649,165.4
10653,197.1
10657,147.1
10658,104.2
10660,182.4
10662,118.1
10664,144.1
10665,151.5
10666,191.4
10670,201.5
10671,144.5
10674,170.9
10676,174.9
10680,80.8
10684,134.2
10686,198.4
10689,206.4
10690,174.0
10691,140.3
10693,194.0
10697,134.2
10700,128.6
10701,192.3
10702,117.9
10703,165.2
10705,139.7
10709,106.5
10711,164.5
10712,144.5
10713,148.9
10714,92.2
10720,138.9
10721,168.5
10722,203.1
10723,208.1
10725,147.1
10726,98.7
10728,111.6
10730,137.8
10731,175.0
10732,100.3
10736,87.3
10737,153.8
10738,134.2
10739,171.4
10740,121.2
10741,173.3
10744,131.3
10745,132.0
10749,174.9
10751,81.5
10752,154.8
10755,105.6
10757,161.9
10759,167.2
10762,190.3
10763,181.9
10764,185.0
10765,147.1
10769,135.4
10770,80.6
10771,88.8
10774,98.0
10776,183.2
10777,99.7
10779,131.7
10780,186.8
10786,189.3
10791,195.9
10792,162.5
10794,173.6
10795,147.3
10796,145.4
10798,114.9
10800,130.4
10803,112.9
10805,205.4
10806,152.2
10808,150.6
10810,106.6
10813,177.9
10814,135.0
10816,138.7
10817,154.9
10818,83.0
10819,131.7
10822,182.7
10823,101.6
10827,207.1
10830,150.2
10832,162.5
10835,132.7
10839,174.1
10841,163.0
10845,170.7
10847,147.1
10849,129.6
10852,190.7
10856,163.2
10860,129.1
10863,112.9
10864,199.3
10865,195.8
10866,194.0
10867,157.9
10868,83.1
10869,208.1
10872,199.2
10873,170.2
10878,116.4
10881,173.0
10882,86.8
10883,192.7
10885,98.9
10886,160.8
10887,147.1
10888,179.3
10889,92.2
10890,153.3
10891,108.0
10894,86.5
10895,164.9
10896,195.7
10897,80.1
10899,94.1
10900,121.4
10905,123.1
10908,130.9
10910,141.8
10911,182.3
10912,149.0
10914,154.8
10915,169.8
10916,172.1
10918,87.8
10919,194.1
10921,108.2
10922,148.1
10926,146.2
10928,136.8
10930,163.1
10932,174.7
10935,84.6
10939,113.2
10941,123.9
10943,88.9
10944,116.6
10950,115.4
10954,152.2
10955,88.3
10957,132.7
10958,196.2
10959,124.2
10960,169.3
10961,188.4
10962,104.8
10963,162.5
10968,131.7
10973,93.4
10974,147.0
10977,108.2
10979,120.3
10981,121.6
10982,118.8
10983,145.7
10985,105.6
10989,161.2
10990,81.6
10991,199.9
10993,147.1
10995,144.5
10996,121.3
10998,116.6
10999,94.3
11000,189.3
11005,138.6
11006,114.1
11009,134.2
11011,91.9
11013,200.5
11016,84.8
11018,195.5
11019,182.7
11020,165.4
11021,132.6
11022,129.1
11026,158.8
11027,170.2
11030,164.0
11031,106.5
11033,171.2
11034,136.7
11035,144.5
11036,93.9
11037,147.1
11040,130.6
11046,207.5
11049,139.4
11050,147.3
11051,134.9
11052,91.1
11053,154.3
11055,187.5
11059,130.1
11063,129.1
11064,126.3
11066,175.7
11068,147.8
11070,166.3
11076,139.4
11077,100.8
11078,88.5
11079,193.1
11082,173.5
11084,192.4
11085,123.3
11088,207.3
11089,152.2
11091,107.0
11092,104.6
11093,126.3
11095,150.1
11096,156.4
11100,134.9
11101,137.2
11102,99.5
11103,144.5
11104,128.1
11111,127.4
11112,111.1
11113,112.2
11114,165.3
11115,180.2
11116,146.2
11117,134.2
11121,116.7
11125,130.4
11128,165.7
11130,149.7
11133,92.3
11138,197.7
11140,171.1
11142,123.6
11143,85.6
11144,147.1
11149,168.6
11153,150.1
11157,134.2
11159,114.8
11162,135.3
11164,151.2
11168,158.6
11170,160.0
11172,107.0
11173,185.9
11177,180.9
11178,80.8
11180,182.5
11184,124.3
11185,147.1
11186,100.5
11187,187.3
11188,103.2
11189,178.0
11190,135.9
11191,152.8
11192,164.2
11194,113.2
11195,89.1
11198,123.9
11199,128.2
11200,176.0
11201,88.0
11204,121.6
11206,193.7
11211,160.0
11212,128.2
11214,119.0
11217,93.8
11218,111.0
11219,184.5
11220,140.7
11221,104.8
11222,199.0
11223,149.6
11225,152.2
11226,153.4
11227,141.3
11228,195.2
11230,189.5
11234,163.1
11235,179.5
11236,109.1
11238,129.1
11240,192.5
11241,189.8
11242,203.5
11245,183.1
11250,141.0
11252,162.5
11253,199.6
11256,203.5
11258,95.1
11261,194.2
11263,145.2
11265,98.2
11266,142.0
11268,96.7
11270,175.2
11274,164.8
11275,199.8
11277,105.8
11278,181.4
11279,121.4
11282,88.0
11283,137.5
11284,90.8
11285,89.5
11286,187.5
11288,173.1
11289,116.2
11290,105.2
11292,154.8
11294,167.8
11304,143.6
11305,142.0
11306,195.5
11315,205.4
11316,125.3
11317,165.6
11319,190.3
11320,118.8
11324,169.9
11328,138.1
11331,141.1
11333,147.1
11335,178.5
11337,188.4
11338,181.9
11341,197.4
11344,201.5
11345,168.1
11346,131.7
11347,155.7
11348,141.7
11349,128.9
11352,172.3
11353,136.5
11355,180.3
11356,132.3
11357,139.2
11358,118.5
11359,158.9
11360,121.4
11362,174.0
11364,129.1
11365,191.1
11366,105.3
11368,181.3
11374,149.7
11378,82.1
11380,159.9
11383,127.7
11384,101.0
11387,134.2
11388,187.1
11391,116.6
11392,98.0
11394,167.7
11396,168.7
11397,127.4
11401,123.9
11403,181.4
11404,161.1
11406,204.4
11413,103.7
11414,139.4
11415,188.9
11420,155.3
11421,178.8
11422,111.7
11423,161.1
11424,81.7
11426,82.8
11427,139.4
11429,170.1
11431,142.2
11432,111.6
11434,86.5
11436,94.8
11439,144.1
11440,163.3
11442,134.2
11443,94.9
11444,198.0
11446,122.7
11448,176.9
11452,92.5
11454,89.0
11455,139.4
11457,172.1
11460,198.2
11462,134.5
11466,84.0
11468,142.0
11469,84.3
11470,132.2
11471,152.9
11472,173.3
11473,167.0
11478,189.8
11481,198.3
11482,136.8
11483,157.7
11484,192.3
11489,199.4
11490,106.4
11492,121.4
11493,146.0
11495,134.2
11496,172.8
11499,126.6
11501,196.3
11502,158.0
11503,94.0
11504,154.2
11505,141.4
11508,91.9
11509,152.2
11514,112.8
11515,111.5
11516,196.5
11523,144.5
11531,145.7
11533,133.7
11534,162.4
11535,190.9
11536,129.1
11537,168.2
11538,111.2
11542,100.2
11543,194.0
11544,91.9
11545,209.3
11547,144.3
11549,152.2
11550,98.0
11552,165.5
11553,135.0
11554,99.0
11557,147.4
11563,144.5
11564,120.3
11566,150.0
11568,114.3
11571,195.6
11572,197.2
11575,208.5
11577,129.1
11578,144.7
11581,96.7
11582,80.3
11584,185.4
11587,169.6
11588,175.5
11590,162.5
11592,165.5
11594,82.7
11596,130.8
11597,86.5
11598,119.5
11599,177.0
11601,182.7
11602,121.6
11603,144.5
11605,156.6
11606,152.7
11608,123.9
11609,107.1
11610,98.6
11611,194.1
11612,132.1
11613,164.7
11616,174.9
11617,123.9
11619,194.3
11622,170.5
11625,105.8
11626,110.5
11630,157.4
11634,196.8
11635,189.9
11636,198.2
11637,129.6
11638,172.7
11639,188.2
11640,106.1
11641,81.7
11643,197.9
11644,147.1
11645,87.4
11646,84.9
11653,86.8
11654,186.7
11655,156.5
11658,126.5
11661,88.6
11662,137.6
11665,94.8
11670,80.5
11671,154.8
11672,202.3
11673,191.0
11675,149.1
11680,85.8
11684,134.2
11687,148.5
11689,207.7
11690,110.0
11694,170.9
11695,116.2
11697,123.6
11698,113.7
11699,194.5
11700,158.0
11701,103.4
11704,168.8
11706,160.8
11707,109.9
11708,200.1
11710,171.8
11712,147.1
11713,162.3
11714,134.2
11716,91.5
11717,180.1
11718,131.2
11721,149.4
11724,163.6
11725,129.1
11726,146.5
11731,185.4
11732,98.2
11733,97.8
11736,162.6
11738,147.6
11739,123.9
11742,125.3
11745,207.9
11746,178.9
11749,119.4
11750,139.7
11752,147.1
11753,170.7
11754,113.3
11756,139.5
11757,80.5
11758,125.2
11761,173.3
11762,89.6
11764,187.7
11765,131.7
11766,209.7
11767,84.7
11768,125.4
11772,151.3
11773,107.6
11776,181.4
11778,111.8
11779,192.1
11780,121.4
11782,136.2
11783,200.9
11785,158.6
11786,160.4
11787,117.7
11793,144.5
11795,98.1
11796,152.5
11799,208.4
11800,177.1
11801,98.2
11803,134.9
11804,110.3
11806,136.8
11816,209.8
11817,175.3
11820,126.5
11821,126.3
11823,83.7
11825,174.7
11826,132.7
11827,143.2
11830,142.3
11833,134.2
11836,192.7
11837,146.2
11838,142.2
11842,193.1
11847,142.0
11851,96.3
11853,149.0
11854,185.4
11856,108.2
11860,142.0
11862,200.5
11863,136.2
11865,148.4
11867,166.4
11868,126.5
11873,91.4
11874,139.4
11875,165.1
11876,194.3
11881,181.7
11882,101.0
11883,200.2
11884,102.3
11886,100.7
11887,149.7
11890,135.3
11891,136.5
11892,146.9
11893,169.8
11895,81.5
11897,170.9
11899,105.3
11900,139.4
11901,163.7
11902,91.1
11903,131.4
11909,186.2
11911,102.0
11914,151.5
11915,129.1
11917,163.3
11918,167.9
11920,172.8
11921,205.8
11922,80.1
11925,117.9
11926,155.9
11927,185.1
11928,154.8
11930,153.5
11931,93.8
11933,122.0
11934,160.9
11935,142.4
11936,99.8
11940,122.0
11941,144.5
11942,158.4
11943,144.5
11948,118.5
11949,151.4
11950,104.4
11952,152.4
11953,204.7
11954,149.2
11955,134.2
11956,121.2
11962,200.2
11964,199.4
11965,202.4
11968,162.5
11970,117.8
11974,180.5
11977,94.2
11978,203.1
11979,130.4
11981,142.8
11982,147.1
11984,155.8
11985,154.3
11986,203.9
11987,98.1
11988,204.4
11991,192.2
11993,192.8
11994,125.6
11996,129.1
11997,92.1
11998,149.3
11999,90.4
12002,94.8
12006,207.0
12007,148.3
12008,85.1
12009,165.1
12013,193.5
12015,126.9
12019,85.7
12021,173.4
12022,149.7
12024,103.9
12025,115.1
12027,171.5
12030,103.5
12036,121.4
12038,203.2
12040,153.0
12043,195.6
12045,125.4
12046,140.2
12049,86.5
12050,160.0
12053,110.3
12055,82.2
12056,98.4
12059,105.5
12063,147.1
12064,96.1
12065,175.0
12067,99.5
12070,162.4
12075,88.3
12076,145.9
12077,129.1
12081,188.6
12082,84.7
12089,115.8
12090,160.0
12092,154.3
12094,206.0
12096,132.2
12099,163.6
12102,124.8
12103,139.4
12106,209.4
12107,101.1
12111,190.6
12112,133.0
12118,118.8
12120,107.4
12121,95.5
12125,152.9
12128,130.0
12131,147.1
12134,195.2
12135,81.8
12136,203.8
12140,163.1
12141,82.6
12142,97.7
12144,136.8
12145,114.0
12146,102.5
12148,130.0
12151,172.4
12152,98.1
12153,171.2
12154,154.6
12156,127.3
12157,123.9
12161,141.0
12163,183.0
12165,162.6
12166,209.2
12168,170.6
12170,122.5
12171,147.1
12172,194.9
12174,169.7
12175,184.9
12177,179.1
12178,119.7
12182,203.0
12184,204.9
12185,136.8
12190,127.8
12192,133.0
12196,181.0
12198,126.5
12200,144.5
12201,86.5
12202,129.5
12207,197.4
12208,182.6
12209,127.0
12212,142.0
12213,119.5
12215,202.2
12216,108.5
12220,122.9
12225,142.0
12226,88.5
12227,129.5
12231,135.8
12233,151.4
12234,149.7
12236,187.0
12237,126.0
12238,193.6
12239,134.2
12241,105.8
12242,177.2
12243,114.8
12244,105.8
12246,118.6
12252,176.4
12253,134.2
12257,109.7
12258,202.2
12260,125.9
12262,151.1
12263,135.8
12266,147.1
12268,100.8
12271,134.1
12272,144.3
12277,136.4
12279,149.7
12280,130.9
12281,119.0
12282,120.7
12283,100.1
12286,191.9
12287,185.5
12288,141.5
12290,148.2
12291,80.6
12292,146.0
12293,139.4
12294,159.2
12295,111.7
12300,180.5
12307,157.4
12308,164.6
12309,180.3
12311,159.3
12315,108.4
12316,187.8
12317,112.7
12319,111.7
12320,147.1
12322,206.8
12328,136.0
12330,157.6
12334,126.5
12337,123.8
12338,149.6
12341,126.3
12342,179.2
12343,182.8
12344,121.5
12345,87.7
12347,157.4
12348,209.3
12350,84.1
12353,102.7
12356,115.0
12358,140.3
12359,175.3
12360,149.7
12361,81.1
12362,139.5
12363,116.4
12365,199.3
12368,178.6
12370,178.6
12372,153.7
12374,170.6
12375,126.5
12377,138.1
12379,198.9
12380,143.7
12382,98.4
12384,206.4
12385,120.9
12388,154.8
12389,162.5
12392,199.9
12395,166.7
12397,206.0
12399,80.6
12401,142.0
12402,153.1
12405,83.7
12409,134.8
12410,123.6
12412,209.1
12413,94.3
12414,126.5
12415,85.0
12418,97.2
12419,170.6
12420,80.6
12426,209.0
12428,160.0
12430,83.0
12433,104.0
12434,153.1
12436,120.5
12438,124.6
12440,195.0
12441,98.1
12442,144.5
12443,140.3
12445,114.4
12446,168.9
12451,167.4
12452,110.2
12453,109.1
12455,118.8
12458,143.9
12459,191.6
12462,178.6
12463,104.5
12464,183.7
12466,174.2
12467,93.1
12468,98.5
12469,149.7
12471,165.4
12472,154.9
12473,115.7
12474,193.0
12475,132.1
12476,104.0
12479,139.9
12480,114.3
12481,151.7
12482,129.1
12483,189.3
12485,129.4
12489,103.8
12490,166.8
12491,94.4
12493,86.6
12495,111.1
12501,127.3
12502,109.0
12503,105.0
12504,172.9
12505,125.5
12510,142.0
12511,118.0
12512,204.1
12515,113.7
12517,178.4
12520,207.0
12521,183.8
12523,126.5
12524,187.1
12526,161.4
12528,156.0
12530,122.1
12532,90.2
12534,166.5
12535,200.0
12536,111.1
12542,124.7
12543,126.5
12544,178.3
12545,108.6
12546,139.0
12548,84.1
12550,139.4
12551,179.4
12555,97.6
12559,104.2
12563,131.7
12565,189.9
12567,134.0
12572,106.0
12574,137.5
12577,123.9
12580,130.1
12581,209.7
12582,98.3
12587,91.3
12588,121.3
12591,136.8
12595,141.8
12598,205.2
12600,173.5
12602,179.1
12603,177.1
12604,134.2
12609,178.9
12610,113.5
12611,93.2
12612,177.9
12614,83.7
12615,113.5
12616,95.4
12617,129.1
12618,206.8
12621,165.2
12622,131.0
12623,81.8
12624,160.8
12630,87.7
12631,131.7
12633,154.2
12636,90.9
12637,188.2
12638,111.3
12639,182.7
12640,110.5
12641,160.4
12642,123.7
12643,89.6
12645,142.0
12648,176.8
12649,202.3
12651,120.4
12652,84.2
12657,122.9
12658,136.8
12659,160.0
12662,156.7
12665,98.6
12669,186.7
12670,198.9
12671,171.5
12672,123.9
12673,134.4
12674,109.6
12677,184.5
12678,203.2
12679,203.8
12682,108.0
12685,147.1
12686,181.6
12687,187.6
12688,149.0
12689,152.3
12695,204.4
12698,144.5
12699,120.1
12700,124.7
12701,201.6
12707,165.5
12709,164.5
12710,87.4
12711,128.0
12712,123.9
12713,186.1
12716,132.1
12717,127.6
12718,191.7
12722,98.8
12723,102.8
12724,173.9
12725,93.9
12726,152.2
12729,113.2
12730,141.3
12733,179.7
12734,137.4
12735,140.7
12737,158.8
12739,144.5
12740,88.3
12742,173.4
12743,118.1
12744,83.2
12746,117.1
12747,113.6
12748,196.4
12749,147.8
12750,171.9
12751,164.1
12752,121.4
12753,112.3
12756,194.8
12759,128.4
12761,199.0
12762,91.0
12764,85.0
12766,157.4
12768,164.9
12769,100.4
12770,207.6
12773,142.9
12774,95.4
12775,163.5
12776,121.7
12778,133.0
12779,168.8
12780,149.7
12785,94.9
12788,167.5
12789,140.8
12793,123.9
12794,96.4
12801,197.4
12803,204.8
12804,185.2
12805,198.3
12806,107.8
12807,157.4
12808,101.0
12811,94.5
12812,135.6
12813,169.1
12814,90.8
12815,87.0
12818,145.4
12819,109.7
12820,139.4
12822,160.4
12824,100.4
12833,121.4
12837,157.2
12838,112.0
12839,153.7
12842,89.8
12844,121.9
12845,108.3
12846,139.9
12847,181.1
12848,152.2
12849,94.8
12851,83.5
12852,97.8
12855,146.8
12856,138.7
12859,80.1
12860,163.7
12861,134.2
12862,125.0
12863,157.3
12864,160.4
12866,174.8
12867,128.5
12869,105.5
12871,113.1
12873,121.3
12874,111.1
12877,81.3
12879,208.5
12880,80.8
12884,180.9
12885,129.0
12888,139.4
12892,184.9
12893,111.7
12897,144.3
12899,159.7
12901,126.5
12904,195.3
12907,176.8
12909,120.3
12915,121.4
12916,125.0
12917,87.2
12919,157.3
12923,145.4
12925,138.8
12926,131.6
12929,144.5
12932,110.9
12933,181.3
12934,115.4
12936,158.6
12938,173.4
12941,106.7
12942,129.1
12944,133.1
12946,169.7
12947,168.3
12949,118.7
12950,88.9
12952,172.4
12953,99.0
12955,123.9
12959,182.5
12960,150.4
12966,92.5
12968,142.0
12972,89.8
12973,111.7
12974,151.4
12976,97.2
12978,102.4
12980,86.3
12983,139.4
12985,177.5
12988,93.0
12989,111.8
12990,128.8
12991,93.1
12996,139.4
12997,120.4
13000,99.4
13003,92.8
13004,149.6
13005,151.1
13007,127.0
13008,110.7
13009,139.4
13010,84.1
13013,151.5
13015,105.6
13016,175.1
13019,194.6
13022,167.4
13023,147.1
13026,148.0
13028,174.1
13031,162.8
13033,108.9
13035,189.3
13036,139.4
13037,110.9
13038,153.5
13039,166.8
13042,91.2
13044,202.0
13049,142.3
13050,136.8
13054,111.9
13057,129.4
13058,81.6
13060,177.4
13063,157.0
13064,162.5
13067,119.8
13070,143.2
13077,152.2
13078,142.7
13081,86.0
13084,83.0
13086,96.8
13090,131.7
13094,113.4
13095,173.2
13096,181.5
13098,205.6
13100,198.7
13101,139.4
13102,136.4
13105,157.4
13106,115.0
13107,127.5
13108,183.3
13112,183.3
13113,167.3
13115,188.9
13118,147.1
13120,121.7
13121,103.4
13123,139.6
13125,148.8
13128,90.5
13131,129.1
13133,94.3
13134,181.5
13135,178.0
13136,160.9
13138,183.8
13142,119.5
13144,113.7
13145,162.5
13147,127.2
13149,158.7
13153,98.4
13155,131.4
13156,124.0
13157,187.0
13158,147.1
13160,158.0
13161,139.0
13162,144.8
13165,110.7
13166,138.0
13168,169.0
13169,95.1
13170,178.2
13171,145.1
13172,134.2
13175,134.0
13179,98.4
13180,135.3
13181,156.0
13182,132.1
13183,97.5
13186,167.7
13192,132.2
13193,187.8
13195,200.1
13198,137.3
13199,152.2
13207,108.4
13208,83.3
13209,127.2
13211,107.0
13212,134.2
13214,92.8
13216,150.8
13218,190.8
13220,142.1
13222,117.2
13223,209.1
13225,167.7
13226,101.6
13227,98.2
13230,169.4
13232,200.6
13238,179.0
13239,117.5
13240,142.0
13245,129.5
13246,89.0
13247,118.6
13248,130.8
13249,129.6
13253,121.4
13255,144.3
13256,106.6
13257,108.4
13258,118.6
13261,168.4
13266,154.8
13267,89.3
13270,139.4
13272,181.3
13274,168.9
13280,139.4
13282,102.6
13283,167.2
13284,128.7
13285,118.4
13286,109.5
13287,158.1
13288,208.7
13290,175.8
13293,118.8
13294,106.9
13297,200.0
13298,114.1
13299,83.5
13300,112.5
13301,120.7
13302,150.0
13305,153.5
13307,144.5
13309,157.1
13310,197.3
13312,200.5
13313,108.1
13317,151.7
13318,181.3
13321,131.7
13322,110.1
13323,83.7
13326,150.4
13328,143.2
13334,121.4
13337,158.4
13339,163.3
13341,132.2
13342,109.5
13347,139.4
13353,189.6
13354,179.5
13356,155.0
13361,139.4
13362,103.5
13363,203.8
13364,181.3
13367,171.9
13368,203.2
13370,94.8
13374,163.7
13375,131.7
13380,142.7
13381,87.5
13382,122.9
13383,109.0
13384,88.4
13385,198.0
13388,139.4
13391,86.5
13392,176.6
13397,169.1
13399,155.3
13401,90.7
13402,147.1
13403,138.7
13409,96.7
13410,100.4
13411,142.4
13415,144.5
13416,147.4
13417,82.7
13419,149.7
13420,138.0
13422,155.8
13426,208.6
13428,136.8
13432,132.1
13433,86.9
13439,187.6
13441,123.5
13443,160.0
13444,138.3
13446,159.7
13447,182.7
13448,174.5
13450,165.3
13451,188.2
13454,142.0
13456,147.1
13458,117.0
13460,159.9
13461,161.2
13463,87.4
13469,129.1
13477,101.0
13480,192.9
13481,93.8
13482,96.2
13483,157.4
13485,116.3
13488,191.0
13489,182.8
13491,208.4
13495,126.3
13496,157.4
13497,175.9
13501,151.9
13502,149.5
13510,131.7
13512,93.3
13513,202.3
13514,205.8
13515,136.2
13517,144.0
13518,162.1
13520,169.0
13521,204.5
13523,165.1
13524,171.9
13525,132.8
13526,111.6
13528,209.1
13529,106.0
13532,92.2
13533,157.5
13536,207.5
13537,144.5
13538,127.6
13539,125.8
13540,186.3
13541,176.8
13542,177.9
13547,93.4
13550,123.9
13554,157.6
13555,159.1
13556,108.3
13557,198.8
13558,145.9
13561,91.5
13563,157.4
13566,189.1
13567,107.5
13568,190.9
13570,172.4
13572,164.3
13573,195.3
13577,87.0
13578,144.5
13581,149.0
13583,203.2
13584,170.7
13590,94.8
13591,121.4
13592,106.9
13596,187.0
13597,144.9
13598,135.4
13602,144.2
13604,157.4
13605,104.5
13606,168.8
13609,102.3
13610,130.6
13615,184.3
13616,169.8
13618,144.5
13631,129.1
13633,134.8
13634,95.7
13636,188.9
13637,90.0
13639,159.8
13640,148.5
13641,114.8
13642,84.8
13643,190.2
13645,160.0
13646,120.4
13647,158.3
13648,87.3
13657,141.9
13658,101.2
13659,139.4
13661,126.4
13662,118.5
13663,147.1
13664,123.3
13669,109.2
13670,170.3
13671,197.5
13672,123.9
13679,186.6
13681,110.5
13682,157.7
13683,156.2
13685,147.1
13686,178.6
13687,96.1
13688,142.6
13689,116.2
13690,175.2
13697,158.5
13698,100.0
13699,134.2
13701,198.4
13702,181.0
13703,196.0
13705,93.8
13707,185.1
13708,89.1
13710,158.0
13711,176.2
13713,129.1
13714,121.9
13716,194.5
13717,88.7
13720,176.1
13722,207.6
13726,144.5
13727,203.3
13728,113.0
13729,144.2
13733,134.7
13734,103.3
13735,201.6
13737,186.5
13738,208.9
13740,139.4
13742,171.9
13744,132.8
13745,84.9
13746,170.5
13748,131.4
13750,154.3
13751,113.9
13752,113.6
13753,129.1
13757,187.2
13758,174.0
13763,152.1
13765,121.4
13766,136.8
13767,92.2
13769,130.6
13773,180.9
13775,158.4
13778,81.1
13780,144.5
13782,180.3
13783,141.1
13785,132.0
13786,166.0
13789,123.9
13790,204.5
13793,86.0
13794,142.0
13797,156.3
13798,170.4
13799,119.8
13800,194.7
13803,155.3
13805,140.4
13806,161.9
13807,134.2
13808,198.9
13812,84.2
13815,208.1
13818,159.5
13819,192.6
13820,152.2
13822,171.3
13823,139.9
13826,162.7
13830,196.0
13833,122.7
13834,147.1
13835,202.9
13836,200.3
13837,134.4
13839,146.1
13841,88.7
13842,106.8
13845,205.2
13847,141.2
13848,134.2
13849,201.5
13851,138.9
13853,142.2
13854,97.7
13856,142.2
13859,109.4
13860,118.2
13861,162.5
13862,81.5
13863,199.6
13867,119.7
13872,164.6
13873,164.0
13875,149.7
13876,175.5
13877,202.9
13880,92.2
13883,160.2
13886,194.3
13887,189.1
13888,123.9
13890,109.8
13891,185.2
13892,133.5
13894,198.6
13895,104.0
13897,110.5
13900,120.6
13901,157.4
13908,197.2
13909,92.2
13910,150.8
13911,164.3
13915,120.3
13916,147.1
13920,114.9
13921,118.5
13927,206.4
13928,193.4
13929,129.1
13932,115.2
13935,167.0
13936,166.9
13938,100.5
13940,116.3
13941,185.1
13942,162.5
13944,178.0
13945,81.0
13946,158.1
13948,137.1
13951,125.6
13956,144.5
13957,196.3
13958,91.8
13959,166.9
13960,146.9
13963,165.5
13964,207.4
13965,134.1
13970,116.2
13971,115.6
13972,159.6
13973,154.9
13975,93.4
13977,144.3
13981,105.0
13982,150.1
13983,152.2
13985,171.9
13988,196.6
13991,140.8
13996,121.6
13997,139.4
13998,188.0
13999,97.5
14001,189.0
14003,208.7
14004,169.0
14009,161.1
14010,123.9
14013,146.1
14014,187.2
14018,130.1
14022,89.9
14023,152.2
14025,197.2
14026,181.4
14028,83.5
14030,106.0
14031,129.8
14032,160.1
14036,103.6
14038,131.7
14040,155.1
14042,208.7
14043,84.6
14044,204.4
14045,111.4
14048,129.7
14050,129.6
14051,113.7
14052,155.8
14060,201.8
14061,135.0
14064,144.5
14066,102.5
14068,101.8
14073,125.1
14075,110.1
14076,129.9
14077,131.7
14078,153.9
14080,92.1
14081,88.5
14085,187.0
14086,181.7
14089,104.9
14091,126.5
14093,168.0
14095,188.7
14096,183.1
14100,181.8
14101,119.7
14102,116.5
14103,162.0
14105,142.0
14106,99.3
14109,80.3
14112,135.2
14113,103.1
14116,176.8
14118,131.7
14119,115.1
14122,104.9
14123,184.8
14124,167.7
14126,150.0
14131,109.9
14132,126.5
14133,111.0
14134,107.1
14136,128.2
14137,202.1
14138,175.9
14139,129.6
14140,197.3
14141,113.1
14143,84.8
14144,136.5
14145,136.8
14147,185.1
14152,185.6
14153,102.8
14155,112.4
14157,153.1
14158,142.0
14160,129.9
14161,160.6
14162,97.4
14163,122.9
14164,82.7
14168,115.0
14170,124.2
14171,188.3
14172,155.1
14173,131.7
14174,125.2
14175,206.6
14177,190.8
14178,162.4
14179,201.7
14180,184.9
14181,208.5
14182,159.1
14183,194.3
14186,126.5
14188,199.8
14190,189.7
14193,192.5
14196,112.3
14197,135.5
14198,197.6
14199,144.5
14200,193.6
14201,134.9
14203,122.5
14205,122.0
14207,92.5
14208,192.0
14209,132.6
14210,85.8
14211,139.5
14212,184.3
14213,144.5
14214,148.0
14215,80.6
14216,179.1
14217,183.8
14220,124.2
14221,97.7
14225,146.1
14226,131.7
14228,139.2
14232,201.5
14234,208.2
14236,176.1
14239,159.4
14240,154.8
14241,132.3
14243,129.0
14244,205.2
14245,135.9
14246,156.6
14247,159.5
14248,113.6
14253,82.1
14254,142.0
14256,171.1
14257,139.5
14258,190.9
14260,163.5
14261,193.4
14263,192.6
14265,136.3
14267,121.4
14268,86.7
14271,190.0
14274,160.8
14277,198.1
14279,90.5
14280,154.8
14281,205.2
14283,107.9
14284,148.1
14285,183.5
14286,203.6
14287,201.2
14290,138.2
14291,123.8
14294,147.1
14296,142.5
14298,126.6
14300,136.2
14301,122.4
14304,164.8
14308,126.5
14314,90.0
14316,174.6
14319,134.9
14321,157.4
14323,82.6
14324,92.5
14325,143.9
14329,118.0
14334,139.4
14335,153.2
14339,174.0
14344,103.5
14347,116.9
14348,118.8
14352,107.0
14353,205.5
14355,159.4
14356,163.2
14357,136.5
14358,147.2
14359,82.4
14361,157.4
14369,206.9
14370,200.4
14371,122.1
14375,144.5
14376,198.2
14377,163.9
14378,181.6
14381,133.1
14382,172.0
14383,182.8
14385,109.8
14387,124.6
14389,121.4
14390,85.9
14391,187.2
14392,177.4
14395,114.4
14397,103.1
14398,152.9
14399,89.4
14401,188.1
14402,149.7
14408,149.8
14412,101.8
14414,123.0
14415,131.7
14416,137.9
14418,119.1
14420,84.3
14422,96.9
14423,87.2
14426,192.1
14429,121.4
14431,191.7
14434,150.1
14435,193.3
14437,209.9
14442,135.6
14443,149.7
14446,102.4
14447,128.9
14448,188.0
14449,146.8
14453,182.6
14455,161.8
14456,134.2
14457,178.9
14458,112.4
14460,164.1
14461,154.5
14466,178.6
14467,132.9
14469,152.7
14470,121.4
14471,86.7
14472,130.1
14473,122.0
14479,125.6
14483,139.4
14486,82.5
14487,189.2
14488,82.8
14489,90.3
14490,179.3
14496,136.8
14497,137.1
14499,155.2
14501,158.1
14503,90.9
14504,184.8
14506,164.3
14510,80.2
14511,134.2
14513,118.2
14515,199.7
14518,191.8
14519,99.2
14521,192.9
14523,172.1
14524,142.0
14525,139.8
14528,148.1
14530,178.7
14532,86.3
14533,108.1
14534,122.6
14535,99.1
14536,202.9
14537,142.0
14539,177.2
14540,108.0
14544,119.5
14545,116.6
14548,161.8
14550,113.6
14551,136.8
14554,146.1
14558,157.7
14560,177.1
14563,173.4
14564,134.2
14565,110.2
14567,149.8
14569,167.7
14578,149.7
14580,99.6
14581,108.9
14583,137.2
14586,134.8
14592,157.4
14594,142.0
14598,189.5
14600,197.3
14602,138.3
14603,108.6
14605,139.4
14607,96.1
14610,138.0
14611,116.4
14616,126.5
14617,140.0
14618,162.5
14619,135.6
14621,167.8
14622,195.7
14623,130.5
14624,202.6
14627,137.8
14629,120.7
14630,85.3
14631,152.2
14634,159.9
14636,198.2
14637,198.9
14639,158.7
14640,185.8
14644,114.4
14645,144.5
14646,134.2
14647,180.5
14648,128.7
14650,115.4
14652,117.3
14653,111.1
14658,117.1
14659,167.7
14660,145.3
14662,123.5
14665,156.4
14669,190.3
14670,138.0
14672,149.7
14674,139.8
14676,113.0
14679,187.4
14681,83.6
14682,177.9
14683,111.2
14684,130.6
14686,126.5
14688,134.6
14690,141.8
14692,83.3
14693,193.4
14699,162.5
14701,82.9
14703,192.7
14704,134.8
14711,126.1
14713,147.1
14714,120.1
14715,137.9
14716,106.0
14719,91.5
14720,121.2
14721,141.3
14722,107.0
14725,181.0
14726,87.7
14727,129.1
14728,156.5
14729,182.5
14731,163.6
14734,86.0
14736,190.6
14738,176.0
14739,183.5
14740,162.5
14741,128.4
14742,126.4
14745,145.8
14746,111.5
14748,117.8
14750,114.2
14753,142.0
14754,111.7
14755,207.8
14757,184.1
14762,165.1
14763,134.9
14764,112.0
14767,118.8
14770,204.0
14775,198.8
14778,192.4
14779,96.9
14781,149.7
14782,133.5
14786,207.9
14790,162.1
14791,199.0
14794,134.2
14796,167.2
14799,81.8
14801,204.5
14808,129.1
14809,113.8
14817,83.8
14818,209.9
14819,175.8
14821,157.4
14826,89.1
14829,175.6
14830,185.9
14832,156.0
14835,139.4
14840,178.0
14842,127.0
14844,134.8
14847,90.2
14849,126.5
14851,169.6
14853,157.7
14854,153.8
14858,175.6
14859,188.4
14860,209.2
14862,149.7
14864,91.3
14867,93.2
14869,195.3
14872,145.3
14875,144.5
14876,177.4
14877,138.2
14878,200.8
14882,132.2
14884,89.9
14887,174.9
14888,134.2
14889,141.1
14890,135.3
14894,92.1
14898,163.6
14899,164.2
14902,146.4
14903,139.4
14904,167.0
14907,116.5
14908,140.0
14909,155.9
14913,132.0
14916,139.4
14917,164.6
14918,181.7
14920,129.8
14922,195.1
14924,172.1
14926,82.1
14928,128.5
14929,139.4
14931,97.3
14932,132.5
14934,207.1
14935,156.2
14940,82.2
14943,139.4
14945,163.4
14946,88.8
14947,173.4
14948,171.2
14949,169.9
14955,80.5
14956,154.8
14957,103.5
14958,171.6
14960,144.5
14961,198.1
14963,191.2
14966,121.0
14969,189.0
14970,142.0
14972,168.5
14973,161.0
14975,134.9
14980,198.9
14981,88.7
14983,87.1
14984,129.1
14986,88.7
14987,193.8
14988,149.2
14989,128.9
14991,120.1
14992,120.0
14993,192.8
14994,107.7
14995,156.8
14996,91.7
14997,154.8
14998,139.0
15000,176.3
15003,124.1
15008,113.9
15010,147.1
15012,118.9
15014,119.3
15015,96.7
15018,104.4
15022,158.7
15024,131.7
15027,116.7
15029,82.2
15030,196.6
15031,193.6
15032,101.6
15035,173.9
15038,167.7
15040,181.8
15041,142.5
15043,109.3
15044,126.5
15047,90.7
15048,199.1
15049,168.7
15050,178.1
15051,149.7
15057,132.8
15059,120.3
15060,192.7
15061,144.6
15065,129.1
15066,119.3
15069,106.5
15070,206.0
15071,199.4
15073,89.9
15074,167.7
15075,81.1
15076,126.2
15077,128.6
15078,162.5
15082,114.8
15083,202.8
15085,134.4
15088,121.4
15090,185.9
15091,149.7
15092,125.4
15093,203.6
15097,201.6
15099,180.9
15105,127.4
15106,129.1
15108,101.8
15110,95.5
15112,151.5
15117,122.6
15118,194.0
15119,157.4
15121,184.9
15125,87.5
15128,155.1
15129,119.5
15132,147.1
15135,195.2
15136,183.2
15137,89.9
15138,102.2
15139,209.7
15141,207.3
15144,122.9
15145,129.1
15152,185.0
15155,189.1
15158,206.5
15159,162.5
15160,94.4
15165,139.9
15166,178.5
15167,103.1
15168,149.9
15170,202.5
15171,92.6
15173,139.4
15175,108.6
15177,149.2
15179,204.1
15180,91.9
15182,195.9
15184,179.5
15185,175.2
15186,121.4
15188,209.1
15191,204.9
15194,88.5
15195,113.6
15200,147.1
15205,130.1
15207,113.7
15208,171.5
15209,207.7
15210,102.5
15213,131.7
15216,198.9
15217,93.4
15218,159.1
15219,128.1
15220,140.2
15222,189.4
15224,207.1
15226,123.9
15227,190.1
15228,189.3
15230,175.6
15231,93.2
15232,88.2
15233,120.9
15234,141.4
15235,105.1
15236,91.8
15239,91.3
15241,149.7
15243,174.1
15245,91.5
15248,112.4
15250,123.2
15254,142.0
15258,163.3
15259,127.1
15261,190.4
15262,203.8
15263,121.7
15266,85.1
15267,134.2
15268,87.7
15270,120.0
15276,81.3
15281,144.5
15282,137.3
15283,91.4
15284,172.6
15285,196.2
15287,160.2
15294,149.7
15295,195.4
15296,132.9
15297,159.8
15298,119.4
15301,179.8
15304,121.6
15305,132.9
15306,189.1
15308,144.5
15310,136.2
15311,177.4
15312,119.7
15318,208.4
15322,136.8
15328,119.5
15329,181.8
15330,176.5
15335,152.2
15337,103.9
15338,156.8
15340,98.4
15342,202.0
15343,191.5
15345,157.7
15346,124.4
15348,149.7
15349,87.2
15360,119.9
15362,139.4
15364,90.7
15365,160.4
15367,175.4
15370,93.4
15374,134.5
15376,162.5
15377,93.6
15379,170.3
15383,129.7
15387,163.3
15388,169.7
15389,147.1
15393,92.1
15394,87.7
15396,178.0
15397,189.2
15398,171.3
15400,148.4
15403,123.9
15406,97.2
15407,166.3
15409,97.4
15412,176.2
15414,132.6
15416,157.4
15423,98.4
15424,187.1
15425,200.3
15429,149.7
15430,99.8
15433,90.9
15435,185.4
15437,126.3
15438,162.9
15439,102.2
15440,181.7
15443,123.9
15450,188.6
15451,153.9
15454,129.6
15455,99.0
15456,148.8
15457,160.0
15458,162.1
15459,144.6
15460,184.0
15461,172.1
15462,176.9
15464,81.4
15468,153.9
15469,98.1
15470,154.8
15471,184.0
15475,162.3
15479,201.8
15481,162.4
15482,144.0
15483,131.7
15486,178.8
15488,151.7
15489,139.3
15491,171.4
15493,100.5
15495,84.0
15496,204.8
15497,162.5
15498,165.9
15500,198.7
15502,114.8
15504,124.1
15505,144.1
15506,96.7
15509,184.7
15511,149.7
15513,152.3
15514,202.1
15516,98.8
15518,125.5
15523,118.4
15524,129.1
15527,104.2
15530,173.2
15535,85.8
15536,168.0
15537,146.5
15538,157.4
15539,200.3
15540,163.5
15541,171.8
15542,99.2
15547,162.1
15548,147.1
15550,82.1
15551,136.8
15552,129.4
15553,117.4
15554,83.7
15558,182.9
15560,188.1
15563,114.1
15564,131.7
15565,134.4
15566,126.6
15567,119.1
15568,142.0
15570,138.7
15571,184.6
15573,170.0
15574,158.9
15575,124.3
15576,173.3
15577,83.0
15579,160.0
15580,193.2
15581,162.5
15582,206.4
15585,156.0
15586,123.0
15588,131.0
15589,169.4
15592,139.4
15599,106.6
15601,92.2
15602,130.6
15603,161.5
15605,123.9
15606,126.1
15608,184.7
15609,108.7
15610,152.7
15616,149.0
15618,200.5
15619,139.4
15621,137.6
15623,194.4
15626,125.2
15627,170.6
15629,198.5
15632,134.2
15634,159.7
15636,187.8
15640,89.6
15641,130.6
15642,204.7
15646,131.7
15647,134.2
15648,96.6
15649,200.6
15657,189.6
15660,139.4
15665,83.0
15666,91.5
15667,92.7
15668,174.5
15670,105.2
15673,139.4
15674,129.7
15675,199.9
15676,142.7
15677,156.6
15678,166.5
15681,138.1
15684,194.7
15686,131.7
15687,178.0
15688,160.0
15689,107.9
15690,82.2
15691,122.8
15692,178.8
15695,174.9
15697,191.4
15699,147.7
15700,131.7
15702,183.7
15706,179.5
15707,174.9
15710,152.8
15713,203.6
15714,147.1
15719,154.0
15722,120.0
15723,156.6
15724,178.0
15725,113.8
15727,147.1
15729,185.2
15730,175.0
15732,204.4
15735,110.3
15740,134.2
15741,137.3
15743,152.9
15744,156.5
15746,194.8
15747,204.5
15748,133.1
15750,108.0
15754,157.4
15758,87.3
15760,153.4
15761,174.7
15763,96.4
15767,174.9
15768,147.1
15770,144.1
15774,185.0
15775,113.3
15776,146.4
15777,147.2
15780,185.9
15781,131.7
15782,148.7
15784,180.1
15792,188.5
15794,123.1
15795,167.7
15798,169.5
15799,99.4
15802,195.8
15804,127.8
15805,166.3
15807,166.1
15808,149.7
15810,166.3
15811,193.4
15812,100.7
15813,197.8
15817,173.2
15820,197.1
15821,123.9
15823,178.8
15824,94.4
15829,108.4
15831,111.9
15836,157.4
15841,107.3
15842,136.8
15846,146.3
15849,144.5
15854,124.6
15855,149.6
15857,118.7
15860,202.5
15862,126.5
15865,134.9
15866,197.9
15875,163.1
15876,160.0
15878,145.3
15880,159.4
15881,131.9
15884,122.1
15885,151.7
15886,142.4
15889,139.4
15893,114.9
15900,116.5
15901,122.3
15903,118.8
15907,154.7
15908,123.5
15911,90.3
15914,126.5
15916,106.1
15917,152.2
15919,201.9
15920,121.9
15922,124.8
15927,182.3
15928,122.9
15930,136.8
15931,161.7
15933,200.1
15935,171.0
15938,143.5
15940,149.9
15941,139.5
15942,115.9
15943,126.5
15947,205.7
15948,88.4
15949,162.7
15950,206.2
15951,130.2
15955,195.4
15956,152.2
15957,200.7
15963,135.7
15965,122.0
15966,95.6
15967,177.3
15969,95.3
15970,160.2
15971,131.7
15972,144.1
15975,113.4
15978,109.1
15979,159.7
15982,126.2
15984,121.4
15985,121.4
15990,179.8
15991,181.2
15992,136.7
15993,195.3
15994,159.5
15997,147.1
16000,137.3
16006,157.9
16009,110.9
16011,147.1
16012,173.9
16020,198.8
16021,86.5
16024,136.8
16029,204.2
16031,125.6
16034,145.6
16035,103.9
16037,188.6
16038,142.0
16039,131.5
16040,104.9
16041,84.9
16043,178.6
16045,122.5
16047,141.8
16048,163.1
16050,102.4
16051,116.5
16052,144.5
16053,96.4
16055,116.5
16057,150.4
16058,176.9
16061,119.7
16063,166.2
16064,101.8
16065,142.0
16066,129.6
16067,151.9
16072,153.8
16077,147.6
16078,142.0
16082,113.0
16086,165.1
16087,86.4
16088,90.8
16089,162.4
16090,145.8
16092,154.8
16093,84.4
16094,81.1
16095,106.5
16096,198.3
16097,152.0
16099,89.4
16102,191.1
16103,193.2
16106,144.5
16108,137.0
16109,111.5
16113,183.3
16115,148.5
16117,132.0
16119,134.2
16121,177.1
16123,93.6
16124,125.0
16126,114.0
16128,134.2
16129,82.1
16130,111.9
16132,100.1
16133,160.0
16140,131.1
16142,160.0
16144,136.9
16145,191.3
16146,154.8
16151,201.1
16153,187.2
16154,132.4
16155,171.1
16159,131.7
16160,144.5
16161,86.3
16168,123.3
16173,106.8
16174,160.0
16175,200.3
16176,190.8
16177,118.9
16180,154.5
16182,93.9
16184,169.8
16186,172.4
16187,147.1
16188,186.7
16191,125.4
16194,137.8
16196,161.4
16198,168.8
16199,184.4
16200,123.9
16201,127.4
16204,85.5
16205,207.5
16206,194.3
16209,203.4
16210,206.1
16213,173.9
16214,160.0
16215,190.5
16220,164.4
16224,165.3
16226,152.4
16227,147.1
16230,191.9
16231,167.6
16232,139.0
16237,193.7
16240,151.4
16241,123.9
16243,91.6
16245,100.6
16246,103.7
16249,113.8
16251,202.5
16254,154.8
16256,128.2
16257,142.1
16258,146.6
16262,117.5
16265,131.4
16266,138.0
16267,159.2
16268,142.0
16269,188.2
16270,188.1
16271,187.9
16274,90.7
16277,181.6
16280,153.1
16281,126.5
16282,154.0
16283,93.0
16284,145.6
16288,139.3
16290,128.7
16292,88.9
16293,154.4
16294,157.4
16299,169.4
16301,118.9
16302,183.2
16303,158.5
16305,101.5
16309,134.2
16311,106.8
16312,93.0
16313,199.3
16314,160.6
16318,103.1
16320,178.7
16321,178.8
16322,121.4
16323,147.3
16324,163.7
16326,166.2
16327,141.9
16328,137.2
16334,136.5
16335,152.2
16337,129.3
16340,121.5
16341,196.7
16342,142.6
16344,127.0
16345,119.4
16347,159.7
16348,164.3
16349,136.8
16353,172.1
16357,163.0
16358,119.8
16359,207.9
16362,123.9
16363,136.1
16364,141.2
16366,144.0
16367,123.7
16370,133.4
16371,153.3
16375,203.6
16376,144.5
16378,174.4
16381,187.9
16382,114.5
16383,159.6
16388,196.7
16390,134.2
16391,143.3
16393,203.1
16396,170.2
16398,118.8
16400,94.6
16403,129.1
16410,107.4
16415,157.2
16416,139.4
16417,140.7
16419,209.2
16421,166.3
16423,94.3
16425,203.5
16426,163.6
16429,140.1
16430,142.0
16431,191.6
16440,179.6
16443,159.9
16444,147.1
16447,114.2
16449,166.2
16450,186.4
16452,165.7
16453,170.3
16455,142.9
16457,139.4
16458,102.5
16459,202.5
16460,140.9
16462,145.1
16463,132.2
16465,93.5
16466,124.5
16468,164.3
16469,175.1
16471,152.2
16474,143.4
16475,92.4
16476,149.4
16477,193.8
16478,128.6
16480,107.8
16481,166.5
16484,149.7
16486,99.7
16487,191.9
16488,149.7
16489,205.7
16492,125.4
16493,82.3
16497,139.4
16502,180.8
16506,177.5
16507,182.1
16509,188.8
16512,160.0
16513,143.2
16514,157.7
16515,188.3
16517,127.1
16518,145.2
16521,165.0
16522,132.3
16525,149.7
16529,100.2
16530,196.7
16535,149.0
16538,134.2
16539,198.2
16540,161.6
16543,95.3
16544,105.1
16545,101.8
16546,107.7
16547,175.7
16550,182.3
16551,167.7
16554,163.0
16556,137.7
16557,119.1
16558,140.5
16559,112.7
16561,184.9
16563,209.6
16566,154.8
16569,137.8
16570,173.1
16573,113.1
16575,207.3
16578,167.0
16579,131.7
16580,143.6
16591,185.2
16592,162.5
16596,186.7
16600,111.9
16601,117.8
16602,152.3
16604,172.8
16606,144.5
16609,154.3
16610,209.3
16611,147.4
16613,108.2
16617,202.0
16619,126.5
16622,128.5
16623,179.7
16626,84.8
16627,140.0
16628,104.8
16629,187.2
16631,93.1
16633,160.0
16641,90.1
16642,125.2
16646,168.1
16647,139.4
16651,165.7
16653,85.1
16656,93.6
16657,177.5
16659,202.2
16660,118.8
16663,139.8
16665,182.8
16668,115.1
16671,84.3
16673,152.2
16676,150.6
16677,171.1
16679,103.2
16682,148.8
16685,120.8
16687,136.8
16691,92.7
16692,197.5
16695,100.3
16696,177.4
16697,127.5
16698,185.4
16699,110.7
16700,151.5
16701,121.4
16702,182.9
16703,156.1
16707,137.9
16711,168.0
16712,125.9
16714,147.1
16719,105.7
16720,135.7
16721,210.0
16722,127.8
16723,167.6
16725,126.3
16726,148.5
16727,133.0
16728,129.1
16729,143.6
16732,139.1
16733,97.3
16741,118.8
16745,150.0
16746,115.1
16749,91.1
16754,139.4
16756,107.8
16757,184.1
16758,186.6
16760,177.9
16764,159.6
16766,89.7
16768,104.6
16769,134.2
16778,158.5
16779,198.4
16780,120.3
16782,136.8
16783,144.0
16784,120.3
16786,159.9
16789,136.2
16790,190.6
16792,200.0
16793,120.8
16795,144.5
16796,172.6
16797,174.5
16800,133.8
16802,179.9
16803,195.0
16804,203.6
16806,114.8
16808,142.0
16809,205.2
16810,105.5
16811,179.8
16813,206.5
16815,166.8
16817,166.3
16818,198.8
16821,167.6
16822,136.8
16826,109.7
16832,127.3
16834,161.8
16835,189.7
16836,139.4
16837,152.9
16838,99.9
16839,187.2
16842,146.8
16844,206.7
16846,124.6
16849,154.8
16850,203.3
16852,167.0
16855,110.8
16859,174.8
16860,185.3
16861,203.0
16863,144.5
16864,172.0
16868,184.0
16873,98.4
16876,134.2
16881,145.9
16883,179.3
16887,130.7
16889,157.4
16891,202.1
16892,93.5
16894,185.3
16895,167.4
16896,204.4
16898,183.6
16899,101.6
16900,114.3
16904,157.4
16912,165.5
16915,121.9
16917,134.2
16918,100.7
16920,129.1
16921,200.0
16922,156.1
16924,182.7
16928,151.1
16929,184.8
16930,162.5
16934,99.1
16935,123.3
16936,160.4
16939,119.8
16940,207.0
16942,178.6
16943,138.7
16944,147.1
16950,114.3
16955,161.8
16957,123.9
16959,129.1
16961,128.4
16962,107.9
16963,128.7
16965,186.5
16966,116.4
16967,200.2
16968,94.2
16969,92.7
16971,160.0
16973,180.4
16978,149.2
16979,190.5
16980,197.7
16981,124.5
16982,107.8
16983,199.8
16985,149.7
16987,104.4
16993,205.6
16996,169.3
16998,131.7
17000,98.8
17003,106.8
17007,187.3
17008,163.7
17011,162.5
17012,93.0
17013,157.1
17014,137.8
17015,203.7
17016,135.7
17017,119.1
17018,93.0
17019,181.2
17021,116.3
17022,144.6
17024,90.4
17025,147.1
17027,129.7
17028,97.5
17032,83.6
17034,89.7
17037,166.0
17038,111.7
17039,126.5
17043,111.6
17044,114.7
17046,87.8
17052,160.0
17056,92.7
17060,104.0
17063,102.0
17065,142.0
17068,106.9
17069,130.6
17071,105.4
17075,146.1
17076,194.2
17079,123.9
17080,131.3
17082,117.8
17085,198.0
17087,86.0
17088,154.5
17089,208.9
17090,166.0
17091,142.8
17092,147.1
17093,94.1
17094,150.7
17099,180.8
17100,129.0
17102,176.3
17104,128.5
17105,142.8
17106,134.2
17109,165.0
17113,169.6
17114,88.5
17116,134.1
17117,204.6
17120,126.5
17121,144.9
17125,85.4
17126,150.9
17127,189.9
17129,131.3
17131,86.4
17133,147.1
17135,119.0
17140,145.1
17142,185.8
17143,108.9
17145,109.4
17146,136.8
17147,187.5
17148,101.0
17149,189.8
17151,165.1
17152,183.5
17153,113.4
17157,135.8
17160,126.5
17161,118.8
17162,156.5
17163,90.8
17165,84.8
17167,173.3
17168,169.0
17171,110.0
17174,136.8
17176,168.6
17181,130.3
17187,142.0
17189,198.5
17190,183.5
17192,154.0
17193,205.5
17195,173.5
17199,177.6
17201,142.0
17202,163.9
17203,109.8
17204,97.0
17206,185.9
17209,209.7
17211,171.7
17214,139.4
17215,157.5
17221,168.7
17222,96.0
17223,89.0
17225,192.2
17227,152.2
17228,152.6
17230,93.0
17232,131.6
17233,150.8
17234,155.3
17237,140.4
17239,81.4
17240,116.0
17242,147.1
17243,95.3
17244,123.2
17248,112.1
17249,157.8
17251,162.9
17253,131.7
17255,134.2
17256,98.0
17258,193.7
17259,203.8
17260,132.2
17262,80.4
17263,102.7
17264,135.0
17267,175.5
17268,162.5
17271,178.4
17275,151.6
17276,146.3
17278,127.7
17280,115.9
17281,81.4
17282,154.8
17283,192.4
17284,200.6
17285,110.1
17288,180.5
17289,127.8
17292,110.0
17294,145.5
17295,129.1
17298,118.7
17300,168.7
17303,160.8
17308,90.7
17309,157.4
17317,133.1
17318,138.3
17319,195.1
17322,122.4
17323,147.1
17324,91.0
17326,120.5
17327,199.4
17328,129.1
17330,108.3
17331,169.7
17335,124.9
17336,123.9
17337,83.4
17339,101.2
17343,90.6
17344,86.1
17346,185.0
17347,91.5
17349,165.1
17351,198.4
17354,111.8
17356,91.3
17362,149.7
17363,123.0
17364,146.7
17365,162.5
17366,171.8
17369,153.6
17370,81.6
17374,108.7
17376,185.0
17377,126.5
17383,192.1
17384,139.0
17385,144.1
17387,144.1
17390,157.4
17393,191.4
17398,170.9
17399,105.0
17400,124.9
17401,145.0
17403,142.0
17406,198.0
17407,196.1
17409,119.5
17410,96.8
17411,198.3
17412,170.8
17414,80.6
17415,92.1
17417,126.5
17420,131.0
17423,150.3
17426,110.1
17428,162.5
17430,152.2
17431,160.0
17436,121.7
17437,111.1
17439,130.1
17440,113.7
17442,178.3
17444,136.8
17445,139.0
17446,188.3
17447,139.5
17451,192.5
17454,136.6
17458,121.4
17461,87.9
17462,130.4
17463,109.2
17464,122.2
17465,204.0
17468,189.6
17469,201.1
17470,183.9
17471,149.7
17472,139.2
17475,162.6
17476,189.5
17482,189.6
17483,163.1
17484,136.8
17485,141.4
17486,110.7
17488,109.6
17491,103.0
17493,155.4
17497,134.6
17498,187.7
17499,129.1
17502,174.3
17503,123.3
17504,178.1
17505,145.0
17506,207.4
17507,209.3
17512,144.5
17513,124.2
17515,181.3
17518,119.3
17522,116.5
17524,149.3
17525,134.2
17526,85.6
17527,119.5
17532,193.5
17534,137.0
17536,184.3
17539,129.1
17542,189.7
17546,150.4
17549,208.8
17552,139.4
17554,130.3
17557,191.3
17559,189.9
17561,101.1
17563,86.7
17565,157.3
17566,142.0
17571,190.3
17572,195.8
17573,126.8
17574,155.4
17575,195.7
17578,184.4
17580,142.0
17581,133.8
17583,95.3
17584,94.0
17586,142.9
17589,209.1
17590,141.4
17593,136.8
17594,119.9
17597,138.4
17599,117.7
17600,176.6
17602,134.4
17603,140.0
17604,146.5
17605,182.7
17606,149.7
17614,99.7
17616,130.4
17619,147.1
17620,155.0
17621,118.5
17622,123.9
17625,202.6
17626,168.4
17630,178.6
17634,136.8
17636,155.4
17637,159.2
17640,113.5
17643,169.1
17645,148.7
17646,125.4
17647,162.5
17648,134.2
17649,189.6
17650,129.3
17651,156.7
17652,157.7
17654,199.9
17655,204.0
17656,173.3
17660,149.7
17662,133.0
17668,108.4
17670,97.2
17671,133.3
17672,151.2
17674,129.1
17675,84.4
17676,179.8
17677,137.6
17678,137.3
17680,139.3
17681,157.5
17682,140.9
17683,178.4
17684,106.7
17685,153.5
17686,187.3
17687,165.1
17688,98.8
17689,109.0
17690,140.9
17696,103.9
17697,176.9
17698,178.6
17699,137.7
17700,167.1
17701,154.8
17703,91.1
17704,203.0
17705,178.7
17706,208.5
17709,96.0
17710,152.0
17712,134.5
17713,104.4
17715,131.7
17717,183.1
17723,132.9
17728,162.5
17731,205.7
17735,164.9
17736,101.8
17737,106.2
17740,110.1
17741,144.5
17742,169.0
17746,180.9
17750,86.7
17751,98.6
17752,160.2
17755,123.9
17756,200.8
17757,112.8
17758,129.3
17760,182.4
17762,185.9
17763,195.6
17766,188.5
17767,203.8
17768,129.1
17769,160.0
17770,208.0
17771,113.6
17772,109.5
17773,199.2
17774,131.8
17775,124.7
17776,97.0
17779,124.3
17780,149.9
17782,139.4
17783,130.9
17784,181.2
17788,157.8
17789,91.7
17791,145.8
17793,111.5
17795,173.0
17796,118.8
17800,86.3
17801,182.1
17802,192.0
17807,114.4
17809,147.1
17810,149.0
17812,187.6
17813,123.7
17816,149.1
17818,181.4
17819,124.3
17820,93.9
17822,129.1
17823,205.0
17828,162.1
17830,179.4
17836,147.6
17837,118.8
17841,81.3
17842,101.7
17850,152.2
17852,125.5
17853,120.4
17856,98.6
17858,184.3
17859,122.1
17860,206.7
17861,133.3
17862,209.1
17863,136.8
17864,206.2
17867,127.5
17868,184.1
17870,142.4
17871,191.8
17872,203.7
17873,151.6
17874,162.9
17876,123.9
17885,138.1
17886,131.6
17889,168.2
17890,144.5
17892,85.5
17894,173.9
17897,203.6
17901,101.9
17904,144.5
17905,112.4
17908,89.8
17909,142.5
17910,197.3
17911,92.1
17912,205.9
17914,197.5
17915,152.8
17916,205.4
17917,139.4
17918,199.9
17919,203.7
17920,180.8
17922,166.0
17923,150.2
17926,141.4
17927,148.2
17930,142.9
17931,149.7
17934,199.6
17937,147.5
17938,106.4
17942,183.7
17943,89.9
17944,149.7
17945,184.2
17949,184.7
17950,153.8
17952,183.6
17953,102.6
17955,186.3
17957,136.8
17960,141.6
17963,166.6
17965,131.0
17967,119.1
17969,135.5
17972,136.8
17973,110.5
17974,178.8
17977,150.4
17978,145.9
17980,141.2
17981,82.5
17984,90.2
17985,154.8
17987,85.4
17989,148.5
17990,120.6
17993,169.0
17998,144.5
18000,99.5
18001,82.8
18005,168.5
18008,175.0
18009,165.3
18012,142.0
18013,80.5
18016,174.0
18017,143.6
18019,118.7
18022,203.1
18023,88.7
18025,165.1
18026,115.8
18029,144.8
18031,97.9
18032,192.4
18038,88.9
18039,154.8
18040,192.9
18041,115.0
18042,134.0
18049,193.7
18053,134.2
18055,121.5
18058,176.2
18060,181.4
18062,126.2
18063,132.7
18066,170.2
18067,168.5
18069,138.2
18072,115.9
18076,187.3
18077,109.9
18078,173.8
18079,160.0
18082,87.2
18084,149.5
18086,179.7
18089,118.0
18091,150.6
18092,202.1
18093,131.7
18094,104.5
18107,165.1
18108,81.7
18110,205.8
18111,146.0
18114,144.1
18117,197.3
18119,169.5
18120,149.7
18122,108.1
18123,149.5
18125,163.8
18127,135.4
18128,183.4
18134,129.1
18135,192.4
18136,123.6
18138,207.1
18139,100.0
18144,97.5
18145,143.1
18147,165.1
18148,114.8
18151,166.3
18152,124.5
18153,171.5
18159,160.7
18160,142.0
18164,139.8
18165,92.4
18166,85.8
18167,93.9
18174,121.4
18176,136.2
18177,159.2
18179,190.1
18182,142.8
18183,97.2
18186,160.3
18188,154.8
18191,125.6
18193,154.3
18194,86.0
18196,190.3
18197,100.1
18199,174.1
18200,125.9
18201,136.8
18203,111.0
18214,121.4
18215,171.7
18216,206.0
18218,138.5
18228,152.2
18229,80.5
18230,114.9
18231,164.2
18233,105.7
18239,142.0
18241,124.3
18242,142.0
18245,101.0
18251,198.2
18252,124.7
18255,131.7
18258,205.4
18259,162.1
18265,128.4
18266,122.0
18269,149.7
18275,96.2
18281,135.8
18282,144.5
18284,107.4
18288,158.6
18289,137.7
18290,116.7
18292,101.4
18293,82.5
18295,182.4
18296,139.4
18300,123.5
18310,144.5
18313,201.7
18314,119.4
18317,191.7
18318,209.3
18319,205.2
18323,147.1
18324,198.9
18326,118.9
18327,185.4
18328,187.5
18331,155.8
18333,100.6
18334,96.9
18335,158.2
18336,142.0
18340,147.2
18343,150.9
18345,170.1
18346,103.1
18350,142.0
18353,164.9
18355,203.8
18356,205.8
18358,198.9
18359,174.6
18364,157.4
18365,110.6
18368,200.1
18377,149.7
18378,136.5
18385,182.6
18386,142.4
18388,194.6
18391,134.2
18392,113.5
18398,104.9
18400,119.7
18404,157.4
18410,161.9
18412,124.5
18414,119.6
18416,196.6
18417,149.7
18424,147.5
18426,101.4
18428,206.7
18430,128.9
18432,129.1
18433,142.0
18435,123.9
18436,132.8
18440,172.4
18442,120.0
18445,162.5
18446,196.3
18449,192.7
18451,164.2
18454,188.5
18455,159.7
18456,154.3
18457,179.2
18458,160.0
18459,109.4
18460,200.7
18464,164.1
18465,163.3
18467,96.3
18471,134.2
18472,141.2
18475,192.3
18480,204.9
18481,161.4
18483,173.7
18484,153.8
18485,167.7
18488,81.2
18492,88.6
18493,170.9
18497,142.8
18499,157.4
18501,142.1
18502,96.6
18505,194.3
18508,132.7
18509,170.3
18510,206.0
18512,134.2
18513,188.3
18515,96.4
18517,114.0
18521,100.0
18524,84.3
18526,167.7
18529,133.6
18531,157.9
18532,86.9
18533,178.9
18534,173.3
18535,114.9
18536,187.9
18538,206.7
18539,144.5
18541,198.6
18544,168.2
18549,99.3
18550,111.4
18551,202.7
18552,129.1
18554,94.8
18555,139.8
18556,186.5
18559,131.5
18561,198.5
18562,113.6
18565,204.8
18566,122.7
18567,162.5
18568,154.3
18570,182.4
18572,194.2
18573,162.4
18575,147.8
18577,96.4
18580,144.5
18587,159.3
18591,109.0
18593,129.1
18594,207.3
18595,159.4
18596,208.1
18598,115.5
18599,184.1
18602,101.3
18606,154.8
18607,152.2
18608,162.9
18609,188.4
18610,205.2
18615,164.2
18619,122.0
18620,136.8
18623,134.2
18632,134.0
18634,129.1
18635,170.2
18636,182.4
18638,183.6
18641,90.7
18647,125.9
18648,144.5
18651,192.2
18654,82.6
18655,101.9
18656,136.1
18658,198.7
18660,176.4
18661,136.8
18662,140.4
18667,181.3
18670,132.3
18671,81.4
18673,173.6
18674,142.0
18676,98.6
18677,153.2
18678,154.7
18679,171.4
18680,162.7
18681,136.2
18683,189.5
18684,132.9
18687,192.4
18688,147.1
18689,163.8
18690,119.1
18692,138.7
18693,143.6
18694,189.5
18697,171.7
18698,121.4
18699,165.6
18701,86.8
18702,149.7
18706,199.7
18709,102.9
18710,112.3
18712,132.1
18714,144.1
18715,149.7
18716,98.7
18718,171.7
18720,88.0
18721,136.3
18722,203.5
18723,185.5
18728,147.1
18731,114.8
18732,154.2
18733,160.9
18742,162.5
18743,119.8
18745,110.1
18747,154.7
18749,156.4
18751,116.0
18752,191.0
18755,147.1
18757,176.1
18758,167.3
18763,192.5
18767,182.9
18769,136.8
18772,169.6
18773,102.7
18774,140.9
18777,170.2
18778,123.5
18781,105.8
18783,165.1
18784,187.5
18785,187.4
18788,92.8
18789,108.8
18790,82.6
18791,142.6
18792,116.0
18796,157.4
18797,112.3
18798,196.8
18800,168.3
18801,86.6
18803,208.1
18806,135.0
18809,136.8
18810,93.2
18811,103.2
18812,118.1
18813,141.8
18814,113.0
18816,162.4
18817,150.0
18822,104.8
18823,167.7
18827,186.5
18829,100.4
18834,111.4
18835,125.1
18836,122.1
18837,149.7
18839,89.4
18840,86.3
18846,112.3
18847,97.2
18849,92.5
18850,126.5
18854,83.7
18855,172.1
18857,127.5
18861,126.3
18863,149.5
18864,160.0
18865,144.8
18867,184.5
18868,204.3
18871,114.7
18872,209.7
18875,86.8
18877,152.2
18879,99.7
18880,196.4
18881,186.3
18884,167.8
18888,203.0
18889,131.1
18890,126.5
18891,89.3
18892,157.2
18893,100.3
18894,185.7
18898,191.3
18900,97.1
18902,110.2
18904,184.1
18905,157.4
18906,84.6
18907,143.2
18909,147.2
18911,156.2
18915,189.8
18917,186.9
18918,139.4
18919,175.3
18920,195.2
18924,197.4
18925,125.4
18931,118.8
18934,176.6
18937,174.8
18941,120.3
18943,204.9
18945,152.2
18948,201.1
18949,206.6
18950,160.1
18951,193.7
18953,94.3
18956,170.0
18957,191.6
18958,136.8
18960,120.8
18961,144.5
18963,95.8
18964,201.1
18966,136.2
18967,110.0
18968,204.6
18969,162.1
18971,97.1
18972,121.4
18975,116.1
18976,112.0
18980,189.2
18981,136.0
18982,176.8
18984,97.4
18985,144.5
18986,190.8
18989,167.3
18990,193.4
18992,165.4
18993,195.9
18996,173.1
18999,131.7
19000,110.9
19001,97.1
19002,193.6
19003,80.1
19004,136.7
19008,89.5
19009,85.4
19010,100.0
19011,120.9
19012,126.5
19015,153.1
19018,130.1
19020,185.1
19023,166.8
19024,134.6
19025,147.1
19029,137.9
19033,194.0
19034,119.8
19036,169.2
19039,170.1
19040,139.4
19042,134.9
19043,198.7
19045,145.7
19049,176.9
19050,157.1
19053,131.7
19058,94.2
19062,90.2
19066,139.4
19067,117.0
19068,178.1
19069,175.3
19070,190.4
19071,175.2
19072,158.0
19075,143.1
19076,146.7
19079,145.1
19080,142.0
19082,92.8
19083,157.2
19084,85.0
19085,183.9
19087,196.5
19088,165.3
19091,130.2
19092,111.6
19093,149.7
19095,148.0
19098,133.0
19100,146.1
19101,172.0
19103,175.4
19105,91.5
19107,144.5
19109,186.2
19112,125.9
19114,134.7
19119,157.5
19121,154.8
19122,209.1
19124,161.6
19126,165.9
19127,129.6
19129,209.1
19130,178.6
19131,149.7
19134,147.1
19136,100.8
19139,142.2
19141,148.1
19143,81.6
19145,203.4
19146,172.9
19147,139.4
19148,100.4
19152,80.2
19154,163.0
19157,152.0
19161,167.5
19162,162.5
19164,202.7
19167,117.7
19169,100.1
19172,105.1
19173,107.4
19175,157.4
19176,134.6
19178,82.3
19179,147.0
19182,174.5
19183,172.5
19184,83.7
19185,149.4
19187,86.5
19188,134.2
19189,132.0
19193,137.6
19194,195.0
19195,178.8
19197,155.9
19198,208.5
19201,128.3
19202,165.1
19209,163.4
19210,125.1
19212,116.9
19215,154.8
19218,151.3
19219,133.5
19220,195.9
19225,113.8
19229,134.2
19231,142.5
19232,153.4
19236,202.7
19237,129.3
19241,147.0
19243,170.2
19246,134.3
19250,128.4
19252,192.9
19253,123.9
19255,143.9
19256,149.7
19261,93.1
19263,135.2
19265,126.1
19266,85.9
19267,166.9
19268,183.4
19269,129.1
19272,186.7
19277,106.9
19278,119.5
19279,200.4
19281,91.6
19282,160.0
19286,86.3
19292,161.4
19293,137.1
19294,156.5
19297,144.5
19303,99.1
19307,173.6
19310,123.9
19311,97.5
19317,148.8
19318,205.0
19320,135.7
19323,152.2
19324,178.6
19326,107.8
19327,180.2
19328,171.5
19329,142.7
19337,131.7
19338,111.5
19340,168.0
19343,92.9
19344,144.4
19346,152.4
19347,94.1
19350,121.4
19354,181.8
19355,189.2
19357,94.0
19359,116.8
19362,142.5
19364,152.2
19368,100.0
19372,190.8
19374,98.7
19376,166.4
19377,98.0
19378,136.8
19379,128.7
19381,186.3
19384,123.8
19386,83.1
19387,87.5
19389,124.5
19391,123.9
19397,156.7
19399,84.1
19401,209.2
19402,173.6
19403,166.6
19404,142.0
19411,156.2
19413,151.6
19415,107.1
19416,190.1
19417,132.2
19418,134.2
19419,139.6
19421,147.7
19423,142.2
19424,120.3
19427,92.7
19431,107.9
19432,139.4
19433,106.3
19434,183.2
19436,116.7
19438,148.4
19440,180.4
19441,87.7
19443,83.9
19445,147.1
19446,90.3
19447,109.0
19449,100.5
19452,119.9
19455,201.8
19456,208.2
19457,143.9
19459,147.1
19461,206.6
19462,116.1
19464,136.9
19465,153.9
19466,205.0
19469,133.7
19470,208.7
19472,139.4
19474,133.7
19475,130.4
19476,146.6
19482,144.5
19484,105.3
19485,136.8
19487,93.0
19489,158.7
19491,129.1
19494,98.9
19495,100.2
19499,181.1
19500,152.2
19502,162.1
19504,87.2
19505,101.6
19506,112.5
19507,96.9
19510,196.6
19511,117.3
19512,128.4
19513,149.7
19515,176.7
19520,138.7
19521,190.2
19522,203.9
19523,104.0
19524,90.2
19526,134.2
19527,128.0
19528,153.3
19532,85.7
19535,114.1
19536,200.0
19539,157.4
19540,190.6
19541,101.6
19542,192.1
19544,194.7
19545,81.6
19547,89.0
19548,132.3
19550,85.6
19553,147.1
19554,150.5
19556,94.9
19558,103.4
19561,155.3
19563,143.4
19565,151.9
19567,129.1
19569,180.3
19570,143.2
19571,159.8
19572,155.9
19573,129.6
19574,105.2
19575,90.8
19576,98.3
19579,130.8
19580,162.5
19581,122.0
19582,151.7
19583,185.6
19586,191.5
19588,119.4
19594,152.2
19597,100.2
19601,98.8
19604,183.9
19605,113.7
19607,131.7
19609,152.2
19610,112.6
19611,150.7
19616,131.1
19618,174.1
19619,111.8
19620,160.0
19621,140.0
19622,140.1
19624,119.0
19626,85.4
19628,202.6
19629,188.9
19631,193.3
19632,198.7
19635,144.5
19636,84.1
19639,99.8
19641,168.3
19642,162.1
19643,185.6
19644,199.6
19645,182.4
19647,158.6
19648,129.1
19649,112.3
19650,154.6
19652,80.8
19654,91.1
19657,114.3
19658,201.0
19659,182.4
19660,193.5
19661,162.5
19662,153.8
19663,176.8
19667,188.0
19671,185.9
19673,184.6
19674,160.0
19675,142.0
19676,175.4
19678,190.1
19682,129.2
19684,165.5
19688,121.4
19690,157.9
19691,195.5
19694,174.4
19696,133.2
19697,151.8
19699,181.0
19701,117.6
19702,149.7
19704,205.9
19705,108.7
19706,90.2
19707,92.1
19709,178.2
19711,147.0
19712,94.4
19714,191.5
19716,134.2
19718,191.1
19729,123.9
19732,162.4
19733,120.6
19736,203.3
19738,124.4
19739,91.2
19742,149.7
19744,171.5
19745,100.4
19746,162.7
19748,137.8
19750,156.3
19752,80.3
19753,120.5
19756,131.7
19759,85.0
19760,127.0
19761,80.2
19763,176.8
19764,183.0
19765,184.9
19766,197.4
19768,138.9
19770,129.1
19771,118.5
19773,186.3
19776,139.6
19777,107.6
19779,82.8
19781,93.6
19783,147.1
19785,185.2
19787,126.0
19789,198.4
19790,115.3
19791,141.6
19792,203.0
19793,99.8
19794,122.7
19795,207.0
19796,142.0
19797,158.0
19798,182.8
19800,139.1
19804,114.8
19807,108.9
19808,191.5
19810,139.4
19811,201.9
19815,114.5
19817,160.4
19818,155.5
19819,199.7
19820,148.3
19822,80.5
19823,144.5
19824,202.5
19825,112.1
19826,93.9
19828,109.7
19832,177.2
19833,209.9
19834,117.6
19835,104.2
19837,142.0
19838,161.9
19839,205.3
19843,89.2
19845,188.3
19847,82.2
19848,101.8
19849,178.7
19851,136.8
19856,138.6
19857,110.4
19858,88.5
19859,164.0
19863,85.9
19864,139.4
19865,143.6
19867,203.2
19868,111.4
19869,169.1
19870,84.7
19872,83.5
19874,149.4
19876,132.8
19877,160.0
19879,123.2
19881,132.9
19882,92.3
19884,121.9
19886,131.5
19891,144.5
19895,130.5
19896,117.5
19901,88.0
19904,137.3
19905,129.1
19907,203.6
19908,132.0
19910,157.9
19911,194.0
19914,129.2
19915,162.6
19917,155.9
19918,154.8
19920,147.4
19921,115.3
19922,112.8
19923,89.0
19926,81.6
19929,164.5
19932,152.2
19934,132.7
19935,93.8
19936,208.5
19939,199.8
19940,139.3
19941,140.9
19943,178.0
19944,137.8
19945,131.7
19946,203.5
19950,179.5
19954,108.9
19955,142.5
19956,154.6
19958,160.0
19963,120.3
19965,105.6
19967,106.3
19973,154.8
19974,208.7
19977,84.8
19982,148.6
19983,94.4
19986,129.1
19990,195.0
19992,137.5
19995,154.6
19996,178.7
19999,165.1
20000,188.2
20003,209.1
20004,116.1
20007,83.1
20009,199.8
20011,114.8
20012,118.2
20013,152.2
20018,202.8
20021,185.3
20022,123.4
20023,156.9
20024,138.2
20026,109.6
20027,129.1
20028,110.3
20031,166.1
20037,119.4
20040,157.4
20042,153.4
20046,132.9
20049,171.2
20051,124.5
20052,202.2
20053,109.7
20054,139.4
20057,208.1
20058,142.4
20059,168.4
20060,186.4
20064,174.5
20066,126.8
20067,121.4
20071,197.9
20072,193.9
20075,178.4
20077,120.4
20080,152.2
20081,170.3
20084,156.1
20085,103.4
20086,161.4
20088,207.4
20089,107.9
20091,130.2
20094,136.8
20096,94.5
20097,176.2
20098,142.1
20101,188.1
20102,110.6
20103,209.3
20105,108.1
20106,153.8
20108,116.2
20109,119.4
20110,135.6
20112,198.7
20113,115.5
20115,144.4
20117,174.0
20118,200.8
20121,142.0
20123,105.5
20125,177.0
20126,152.8
20128,125.4
20129,148.4
20130,191.5
20133,206.1
20134,131.7
20137,111.7
20139,160.8
20140,192.5
20141,165.7
20143,130.4
20148,126.5
20149,138.9
20151,92.0
20152,171.2
20153,208.8
20155,204.7
20158,115.6
20160,106.1
20161,96.2
20162,144.5
20163,179.5
20164,199.3
20165,130.8
20167,201.8
20171,136.0
20173,127.5
20174,152.7
20175,136.8
20181,93.2
20183,193.5
20186,187.2
20187,140.1
20189,134.2
20190,96.3
20192,194.5
20193,95.8
20195,97.7
20196,83.2
20199,170.7
20202,147.1
20204,156.4
20206,159.6
20207,201.5
20209,128.2
20210,114.2
20211,119.3
20213,107.1
20214,157.0
20215,149.7
20218,170.2
20220,138.2
20223,93.2
20225,118.5
20226,207.0
20227,164.0
20228,126.9
20229,80.6
20230,144.5
20232,193.6
20234,157.9
20235,110.9
20236,166.0
20237,141.8
20243,136.8
20244,189.2
20245,92.9
20246,150.3
20248,131.4
20249,204.0
20251,155.8
20252,99.6
20253,121.9
20254,158.6
20255,190.8
20256,149.7
20260,87.1
20261,83.1
20262,200.1
20265,130.6
20267,87.0
20268,86.2
20270,149.7
20273,90.4
20275,204.6
20277,186.5
20279,166.7
20282,177.5
20283,131.7
20284,90.8
20285,122.5
20286,89.6
20291,89.2
20297,157.4
20302,156.1
20303,105.0
20304,113.5
20306,112.8
20309,180.3
20310,161.1
20311,142.0
20312,146.9
20315,98.1
20316,91.4
20321,110.0
20324,123.9
20328,86.1
20329,176.2
20335,146.6
20337,154.8
20341,165.2
20345,105.1
20346,191.0
20350,144.5
20353,166.6
20354,128.8
20355,154.5
20356,86.7
20358,168.5
20361,203.5
20363,198.7
20364,186.6
20365,126.5
20366,190.9
20368,142.1
20370,105.6
20371,201.2
20372,89.6
20374,114.3
20375,114.1
20378,162.5
20379,96.2
20380,167.9
20381,202.7
20382,140.6
20383,161.7
20384,161.7
20386,133.6
20388,197.1
20391,142.0
20393,127.2
20395,121.2
20397,134.5
20398,158.8
20404,96.4
20405,123.9
20406,89.3
20407,208.9
20409,151.1
20411,194.2
20412,82.7
20413,107.7
20417,90.6
20418,160.0
20419,174.5
20422,131.7
20424,117.4
20431,142.5
20432,147.1
20436,88.2
20437,161.9
20439,206.7
20440,109.0
20443,83.8
20446,129.1
20448,104.6
20449,114.0
20451,95.1
20452,161.6
20453,159.0
20456,135.1
20459,157.4
20460,104.6
20461,198.7
20462,159.2
20464,88.6
20465,190.2
20467,136.5
20470,81.9
20472,134.2
20473,111.7
20478,109.3
20480,155.1
20481,88.8
20482,154.3
20486,121.4
20487,109.7
20489,103.4
20490,124.6
20492,182.5
20493,149.4
20495,195.1
20496,162.6
20500,147.1
20505,132.3
20506,139.0
20507,93.2
20509,129.5
20510,158.3
20511,139.9
20513,131.7
20517,113.8
20518,189.9
20519,153.8
20520,189.9
20522,101.5
20527,121.4
20530,104.2
20532,104.1
20534,159.9
20538,179.0
20540,139.4
20541,113.6
20542,168.9
20544,116.2
20545,205.0
20547,184.2
20548,177.1
20551,135.8
20552,171.5
20553,134.2
20554,150.5
20556,145.9
20557,193.4
20558,194.9
20559,89.7
20561,181.8
20565,108.9
20566,86.0
20568,131.7
20570,113.5
20575,158.6
20578,147.6
20579,121.7
20580,145.0
20581,142.0
20583,91.1
20585,123.4
20586,171.3
20588,157.2
20589,165.8
20592,170.3
20593,180.2
20594,147.1
20595,198.3
20597,170.8
20598,101.7
20601,142.6
20606,142.3
20608,139.4
20609,159.3
20613,102.3
20617,126.3
20618,92.7
20619,99.8
20621,136.8
20625,172.7
20630,114.6
20632,130.7
20635,157.4
20636,110.6
20637,101.9
20639,133.6
20644,195.2
20645,205.7
20646,131.4
20647,82.9
20648,152.2
20651,98.9
20652,122.1
20654,118.6
20658,149.6
20659,80.9
20660,160.9
20661,124.8
20662,136.8
20663,160.5
20664,153.8
20665,143.7
20666,180.0
20670,173.8
20673,206.1
20674,183.6
20675,157.4
20676,105.4
20677,188.0
20680,207.0
20681,190.9
20682,121.1
20687,125.0
20688,147.1
20691,153.4
20692,163.7
20693,99.0
20694,173.6
20695,115.0
20697,91.1
20698,88.4
20700,167.8
20701,208.4
20703,129.1
20705,205.2
20706,139.3
20707,108.4
20708,148.6
20710,99.3
20711,126.2
20716,162.5
20717,204.5
20719,140.2
20722,136.0
20723,93.4
20728,127.4
20729,144.5
20732,152.2
20733,174.9
20735,100.8
20736,107.0
20738,183.5
20743,131.7
20745,150.6
20752,127.0
20754,204.3
20755,84.2
20756,162.5
20762,203.2
20763,170.9
20764,155.1
20765,101.6
20768,112.9
20769,162.9
20770,149.7
20771,98.1
20775,140.6
20777,205.0
20779,189.0
20780,102.3
20784,129.1
20789,94.4
20791,195.4
20793,168.8
20794,147.8
20795,106.4
20797,160.0
20803,102.3
20805,137.4
20806,173.1
20810,142.0
20811,207.6
20814,179.1
20815,117.8
20819,125.4
20820,103.9
20821,141.4
20822,80.9
20824,121.4
20826,160.2
20828,189.8
20829,151.6
20833,97.9
20838,152.2
20839,141.1
20841,187.8
20843,89.0
20844,168.6
20845,100.8
20846,159.7
20848,135.9
20849,195.4
20850,161.8
20851,139.4
20852,122.4
20855,100.4
20856,175.1
20857,122.5
20860,123.2
20862,169.0
20865,126.5
20871,82.5
20872,204.4
20874,195.1
20875,84.2
20877,94.9
20878,147.1
20879,119.5
20881,149.9
20884,113.3
20886,96.8
20887,135.8
20888,102.5
20890,169.7
20891,81.7
20892,131.7
20895,134.4
20898,209.5
20899,97.5
20900,111.3
20901,85.0
20903,177.0
20904,148.8
20905,123.9
20906,80.4
20910,197.6
20916,167.1
20917,168.8
20919,142.0
20924,194.0
20926,163.2
20927,105.7
20931,139.4
20932,139.4
20937,184.9
20938,154.7
20939,207.5
20943,179.8
20945,126.5
20947,98.4
20950,204.4
20951,83.9
20952,158.8
20953,193.3
20954,172.2
20956,108.7
20958,134.9
20959,197.0
20960,131.7
20961,135.4
20962,130.1
20966,152.6
20967,174.5
20968,119.7
20969,112.3
20971,191.6
20973,142.0
20975,113.1
20979,116.2
20983,112.9
20984,202.6
20986,139.4
20988,130.6
20989,136.7
20991,114.3
20992,140.4
20996,84.0
20997,151.1
21000,139.4
21001,117.7
21002,175.5
21004,151.8
21005,93.0
21006,174.8
21008,92.3
21009,132.9
21013,154.8
21014,98.6
21015,202.9
21017,187.9
21020,102.1
21027,147.1
21031,80.5
21035,96.8
21036,92.5
21039,126.6
21041,126.5
21044,121.3
21046,82.4
21047,159.3
21054,154.8
21055,184.8
21058,160.0
21060,207.2
21064,134.0
21067,154.8
21068,175.0
21071,180.5
21072,95.9
21075,188.7
21079,172.1
21080,128.4
21081,131.7
21082,170.8
21084,170.5
21085,97.3
21087,183.1
21092,151.8
21094,86.2
21095,157.4
21102,145.4
21104,151.3
21108,144.5
21114,207.9
21122,123.9
21123,164.2
21124,162.7
21125,110.6
21128,199.8
21129,176.2
