0,3.0
1,10.9
2,-9.8
4,35.8
5,31.3
6,51.5
7,18.5
9,43.1
10,26.2
11,9.5
12,51.9
14,39.1
17,21.0
19,21.5
20,20.4
21,49.7
24,31.3
25,22.0
26,21.2
27,10.5
31,45.5
32,30.7
33,44.2
36,6.7
37,18.2
40,12.2
41,32.8
42,31.7
43,21.0
46,46.6
48,10.1
50,18.3
52,49.3
54,32.1
56,35.6
58,33.4
59,2.5
61,24.2
62,-12.4
68,16.9
69,8.8
72,49.3
76,45.1
78,3.1
79,15.4
81,-12.4
82,25.8
84,40.2
86,22.6
90,31.5
92,51.9
94,51.9
95,5.1
97,23.9
99,32.9
101,-9.8
106,26.2
108,30.1
111,51.9
112,29.7
113,31.8
120,17.3
121,10.8
122,36.0
123,14.7
129,19.6
130,32.9
132,30.5
133,49.3
137,22.3
143,26.2
147,5.8
148,27.5
149,42.1
153,44.2
156,42.1
158,44.3
160,7.6
162,25.1
163,28.8
164,16.4
165,24.9
166,49.2
169,19.2
170,21.9
174,33.9
184,28.8
185,31.1
187,42.4
193,7.3
195,31.3
201,21.0
202,40.8
205,23.6
206,28.7
210,15.3
211,17.8
212,41.6
213,10.3
214,34.0
216,23.6
217,42.3
224,45.8
225,18.3
226,18.5
227,10.5
229,43.8
230,51.3
231,10.2
232,9.0
234,24.9
235,21.8
236,18.5
237,16.5
239,32.1
241,5.1
242,44.0
244,11.0
246,10.8
247,28.7
249,14.6
251,28.0
255,40.5
256,2.0
257,10.8
259,45.9
261,30.7
263,11.5
264,35.3
267,4.1
268,10.8
272,26.1
273,35.3
275,29.0
276,13.8
278,5.6
284,31.8
285,25.7
287,8.2
294,43.7
295,39.2
296,13.3
297,7.3
298,19.4
299,51.2
300,13.8
305,9.5
306,50.0
307,5.6
309,41.4
310,47.8
313,4.4
314,12.6
316,13.3
317,36.0
318,38.0
319,40.0
321,22.2
322,31.6
327,8.2
330,45.5
336,13.3
339,31.8
341,34.3
344,2.9
345,50.4
347,8.2
349,19.9
351,16.6
356,15.9
358,29.9
363,40.4
365,11.6
366,10.8
367,23.9
368,29.1
369,44.2
371,51.5
372,23.6
374,30.5
375,27.1
376,10.8
377,26.0
378,38.1
381,3.0
382,7.9
383,25.6
384,22.7
385,34.1
387,15.9
388,3.7
389,7.6
391,39.5
393,23.4
395,46.4
396,8.1
398,3.0
404,13.5
407,10.8
409,47.9
410,17.2
412,50.4
414,8.6
416,31.8
417,5.6
419,4.2
421,26.2
424,35.3
427,5.6
429,49.7
432,29.9
433,48.5
435,42.9
436,13.3
440,20.7
446,5.6
447,17.0
451,3.9
452,9.1
455,13.3
461,40.9
462,7.8
465,47.5
466,8.2
469,32.6
470,23.8
471,25.9
473,17.8
475,23.3
476,13.3
479,10.9
480,48.9
481,11.0
484,32.4
485,18.6
486,8.2
487,12.8
488,33.8
489,35.0
491,24.0
495,15.9
496,3.5
499,26.9
500,26.0
503,21.4
505,8.2
508,29.1
509,36.2
512,18.3
513,31.9
514,32.0
515,15.9
516,18.3
521,6.8
522,43.2
524,13.6
525,13.3
526,8.2
527,2.3
530,43.5
532,50.5
534,16.4
535,15.9
537,38.4
540,12.9
541,10.3
545,13.3
547,43.4
548,47.0
549,4.8
556,10.8
558,39.1
560,21.7
561,34.9
565,49.3
566,8.2
569,48.5
573,5.4
575,10.8
576,37.9
579,25.6
580,48.2
581,34.0
584,33.7
585,5.6
587,25.2
591,9.9
593,40.6
594,28.8
595,13.3
596,29.3
597,14.3
598,19.3
601,18.0
602,35.8
603,29.7
606,8.2
612,10.5
613,31.2
615,13.3
617,17.3
619,36.1
620,19.3
621,37.6
622,17.6
623,22.3
624,50.9
625,8.2
628,18.4
629,20.4
631,6.2
634,15.9
638,5.3
642,18.8
643,4.6
644,44.6
645,8.2
647,4.4
651,17.4
652,6.6
654,18.5
655,24.4
657,17.4
664,25.6
665,8.2
668,40.2
670,33.9
671,19.8
672,9.1
673,23.9
674,15.9
676,28.4
678,39.2
680,38.6
681,7.6
682,41.5
683,25.1
684,19.8
685,10.8
688,17.0
690,42.3
694,30.6
695,10.8
698,12.0
699,16.5
703,47.1
704,12.2
705,10.8
706,18.7
708,26.4
709,28.7
710,13.1
711,8.2
714,12.9
715,3.0
716,6.2
721,41.4
723,36.4
724,14.0
726,5.6
727,34.2
729,47.9
730,51.0
731,23.4
735,13.3
738,3.9
744,25.7
745,8.2
746,28.7
751,10.8
753,47.7
754,13.3
755,5.4
756,41.7
758,26.0
763,25.8
764,8.2
765,2.5
766,43.4
767,23.7
769,17.8
774,13.3
775,5.1
776,11.1
777,24.3
778,17.3
779,18.3
781,35.0
783,48.3
784,8.2
785,38.4
786,26.1
788,42.3
790,27.6
791,7.1
794,15.9
798,30.2
800,7.4
801,23.2
804,10.8
806,25.9
809,16.6
810,45.5
811,26.8
812,38.8
815,8.2
818,24.1
821,20.9
822,10.1
824,10.8
829,42.5
832,31.4
834,10.8
836,5.3
839,17.5
840,12.5
842,21.8
844,13.3
846,31.4
847,30.8
850,46.4
851,33.5
852,23.5
854,50.6
855,3.0
858,19.1
859,32.5
862,30.8
864,41.5
865,8.2
867,36.5
869,7.6
870,28.6
872,29.7
874,10.8
877,26.0
879,30.9
880,28.6
884,5.6
885,13.7
888,48.6
892,37.4
893,10.8
894,10.2
895,37.2
896,29.0
897,22.5
899,28.1
901,47.2
904,8.2
905,10.5
907,16.7
910,15.8
911,48.9
913,13.3
915,40.8
921,16.9
922,39.6
924,8.2
925,47.0
928,35.5
929,38.2
933,15.9
934,31.1
935,23.9
936,30.1
937,45.8
941,43.2
944,10.8
946,46.5
948,18.4
950,37.5
952,19.4
954,10.8
956,28.0
959,49.3
961,39.1
962,44.1
964,21.0
968,4.6
970,9.2
972,24.1
974,3.0
975,31.2
981,38.6
982,32.5
984,15.9
986,46.9
989,44.3
991,43.9
993,43.0
995,3.0
998,17.0
999,29.0
1000,34.0
1001,47.4
1002,24.6
1003,6.1
1004,13.3
1007,2.7
1008,18.4
1009,31.0
1010,17.0
1015,-4.7
1017,50.3
1018,48.3
1020,42.5
1022,41.5
1024,41.7
1025,12.3
1026,26.8
1027,51.9
1031,45.7
1032,28.2
1034,21.6
1036,28.2
1037,6.2
1038,23.6
1039,38.3
1040,33.9
1041,12.5
1042,27.1
1048,39.6
1049,36.5
1051,44.4
1052,7.7
1061,21.0
1062,6.1
1063,14.3
1066,51.3
1067,26.6
1072,28.9
1073,15.9
1075,15.8
1076,47.8
1078,30.8
1079,46.4
1080,3.1
1084,26.2
1086,41.7
1087,34.8
1090,45.3
1092,44.2
1093,30.6
1095,-7.2
1097,44.3
1098,43.7
1100,24.3
1102,30.9
1106,51.9
1111,20.5
1115,9.4
1118,31.3
1121,45.1
1122,48.2
1124,31.3
1127,13.1
1128,41.5
1130,33.9
1131,6.5
1134,43.5
1135,17.7
1138,27.2
1139,39.5
1141,21.0
1143,39.7
1144,25.2
1145,39.5
1148,40.4
1149,35.4
1152,11.8
1153,10.8
1154,35.7
1158,3.0
1160,39.2
1161,8.1
1163,14.1
1164,39.1
1166,31.2
1167,2.5
1172,49.9
1173,28.6
1175,-9.8
1178,44.6
1180,51.2
1181,17.4
1183,34.3
1184,17.8
1186,49.3
1187,8.1
1189,38.2
1190,4.1
1191,5.0
1193,28.6
1194,43.3
1196,41.9
1197,44.8
1198,37.9
1199,31.3
1200,4.1
1201,18.4
1206,46.0
1209,17.0
1210,28.8
1212,37.7
1214,12.3
1215,5.5
1217,19.2
1218,36.9
1220,41.4
1221,13.3
1222,26.8
1223,21.0
1228,22.1
1229,47.8
1230,5.9
1232,8.2
1233,36.5
1234,27.5
1238,32.0
1240,30.4
1243,23.6
1247,12.4
1249,14.1
1250,32.9
1251,37.2
1252,33.3
1254,-4.7
1255,29.2
1257,50.8
1259,50.8
1260,44.1
1265,23.5
1266,51.9
1268,20.3
1269,49.8
1272,24.5
1274,14.3
1276,34.5
1277,28.8
1279,45.0
1280,43.0
1287,14.0
1288,26.4
1289,33.9
1290,11.3
1292,19.3
1296,45.9
1300,21.0
1301,7.1
1307,16.5
1310,21.6
1311,10.8
1315,35.9
1317,4.1
1318,8.7
1319,27.4
1322,14.0
1324,39.1
1325,26.3
1326,24.8
1329,44.8
1335,-9.8
1340,29.2
1341,23.1
1346,51.9
1356,40.3
1357,31.3
1358,20.9
1359,2.2
1361,47.7
1364,16.7
1366,28.1
1367,20.9
1368,14.7
1369,28.8
1371,5.4
1372,37.2
1374,22.6
1375,3.7
1380,15.9
1381,7.2
1383,52.0
1385,25.1
1386,49.4
1389,33.7
1390,12.2
1391,28.8
1392,8.2
1394,42.9
1400,48.0
1402,21.0
1403,22.5
1406,15.3
1412,50.8
1413,50.2
1414,-7.2
1418,3.9
1419,35.5
1422,29.3
1423,8.8
1424,51.0
1425,51.9
1426,2.4
1430,9.1
1431,23.0
1435,23.1
1436,28.8
1438,48.7
1439,27.5
1441,7.1
1442,33.7
1443,35.8
1444,24.7
1446,28.4
1447,33.9
1450,31.0
1451,31.6
1452,41.7
1453,48.3
1458,30.8
1460,21.0
1461,30.8
1462,4.2
1464,26.8
1467,15.0
1471,10.8
1473,39.8
1477,47.9
1478,45.0
1480,33.3
1482,33.9
1484,36.6
1485,2.2
1486,10.7
1488,27.3
1492,40.2
1493,15.9
1494,-9.8
1495,32.7
1505,49.3
1506,24.7
1508,15.5
1509,18.0
1510,50.0
1512,7.6
1514,37.3
1515,43.6
1516,28.8
1518,40.3
1524,28.9
1527,46.6
1528,31.3
1530,8.8
1531,26.5
1532,24.7
1534,46.4
1536,3.1
1539,50.4
1540,15.9
1543,42.3
1544,50.0
1546,51.3
1547,41.4
1548,39.9
1549,44.0
1551,8.2
1554,43.0
1555,40.8
1560,40.3
1561,21.0
1562,3.8
1563,17.3
1564,12.4
1569,27.2
1572,-4.7
1576,28.1
1577,5.3
1579,26.7
1580,29.4
1582,24.2
1583,39.4
1584,51.9
1586,50.1
1587,13.1
1590,13.7
1591,22.2
1594,40.0
1595,24.5
1596,28.8
1597,43.5
1603,6.7
1604,37.9
1607,33.9
1609,32.3
1610,33.1
1616,7.6
1617,49.6
1618,21.0
1620,11.7
1627,43.3
1628,45.7
1629,50.5
1630,13.3
1633,11.3
1635,8.4
1636,8.7
1637,15.2
1639,10.3
1640,4.0
1641,33.9
1643,15.1
1650,34.8
1651,10.5
1652,-7.2
1653,45.5
1654,46.7
1656,32.6
1659,38.2
1660,19.8
1661,25.1
1665,49.3
1666,2.4
1668,39.9
1669,5.3
1670,4.8
1672,36.5
1674,36.5
1676,31.3
1679,43.9
1681,15.6
1682,30.3
1684,10.0
1686,20.6
1687,31.3
1688,41.0
1690,44.0
1691,34.2
1695,5.0
1696,26.1
1698,18.5
1699,32.8
1702,6.9
1703,33.7
1704,9.2
1705,39.5
1708,29.2
1709,25.3
1710,8.2
1711,31.4
1713,38.8
1719,25.7
1720,15.9
1721,39.2
1722,51.1
1723,45.3
1724,30.7
1726,12.2
1729,10.9
1730,5.9
1731,26.8
1732,-4.7
1733,16.9
1735,9.2
1737,16.5
1739,15.3
1742,46.5
1743,51.9
1744,34.3
1746,12.7
1748,23.0
1752,7.4
1754,43.4
1755,26.2
1759,4.6
1760,11.6
1761,21.1
1763,23.6
1765,36.4
1766,33.9
1773,12.8
1774,25.7
1777,21.0
1779,9.5
1784,22.0
1789,13.3
1791,36.7
1793,10.5
1794,48.7
1795,9.6
1797,3.8
1799,31.7
1800,41.0
1801,31.3
1802,13.8
1808,46.7
1809,22.7
1810,8.8
1811,30.6
1812,-9.8
1814,11.8
1816,49.9
1817,31.2
1818,2.5
1820,25.2
1823,51.9
1828,32.2
1835,31.3
1836,3.5
1837,6.8
1838,14.2
1841,18.7
1842,41.9
1844,50.3
1845,3.3
1846,31.3
1847,25.1
1849,32.8
1851,6.5
1854,39.6
1858,18.5
1861,3.7
1862,24.6
1863,10.0
1864,7.5
1865,29.0
1868,21.0
1869,10.8
1872,4.1
1875,27.5
1876,46.2
1878,34.8
1881,41.6
1882,26.8
1884,11.3
1885,3.2
1886,43.2
1887,17.8
1891,48.1
1892,-12.4
1893,40.7
1894,39.2
1898,41.6
1901,51.9
1903,7.5
1904,44.2
1906,10.4
1907,42.4
1908,50.2
1910,25.7
1912,2.3
1913,14.8
1914,14.2
1915,26.2
1918,4.7
1926,50.9
1928,18.5
1929,43.3
1934,40.0
1935,16.7
1938,41.3
1939,5.6
1942,47.1
1946,11.2
1947,9.2
1949,5.6
1952,34.4
1953,2.8
1957,19.1
1958,12.7
1959,28.8
1963,31.4
1967,39.8
1971,-7.2
1972,9.1
1979,38.6
1980,48.8
1981,38.5
1982,51.9
1983,31.2
1985,17.3
1990,43.2
1991,41.9
1994,28.8
1999,25.7
2001,11.0
2002,32.9
2006,33.9
2007,12.4
2008,11.1
2010,34.1
2011,19.7
2013,6.7
2017,18.5
2019,48.1
2022,25.5
2023,5.9
2025,25.3
2026,42.9
2027,38.0
2028,10.8
2029,3.2
2030,50.5
2032,8.7
2033,49.4
2035,43.4
2037,20.0
2039,41.6
2042,29.0
2045,7.6
2046,3.9
2048,7.3
2049,30.7
2051,-9.8
2055,7.5
2058,49.8
2063,49.3
2064,28.9
2066,48.1
2067,6.5
2068,42.3
2071,29.0
2072,22.2
2073,39.9
2074,31.3
2079,16.3
2081,32.3
2083,28.8
2085,28.8
2086,22.7
2087,25.9
2089,23.4
2090,45.9
2091,51.0
2093,35.7
2094,8.3
2095,25.2
2096,52.0
2097,13.3
2100,47.4
2101,27.0
2103,15.5
2105,24.8
2106,3.2
2107,39.5
2108,8.2
2112,23.9
2113,34.9
2114,50.8
2116,50.8
2117,7.5
2118,26.2
2120,3.6
2121,16.6
2122,44.3
2123,8.5
2124,23.9
2125,4.2
2128,22.2
2130,-7.2
2132,38.8
2136,40.2
2137,48.7
2138,40.4
2139,49.1
2140,12.1
2142,51.9
2143,32.4
2144,38.5
2145,8.4
2148,11.9
2150,18.3
2151,13.5
2152,29.0
2153,28.8
2155,27.5
2158,15.5
2160,49.2
2161,4.0
2162,9.9
2164,33.9
2168,13.2
2171,50.3
2172,22.5
2173,15.7
2176,18.5
2177,11.4
2181,37.7
2182,2.5
2187,10.8
2189,5.3
2191,10.3
2194,39.2
2195,26.6
2199,39.1
2200,48.9
2202,9.4
2206,2.7
2209,47.1
2210,-9.8
2213,2.1
2214,12.4
2215,12.9
2216,5.0
2218,2.9
2220,27.9
2222,49.3
2223,14.4
2226,16.6
2233,28.8
2234,37.7
2237,22.2
2239,14.0
2240,7.6
2243,2.2
2244,28.8
2245,27.8
2247,30.6
2249,40.9
2250,52.0
2252,8.1
2254,8.0
2256,15.9
2257,41.9
2258,3.2
2259,49.7
2260,44.5
2261,21.2
2263,39.6
2266,33.4
2268,8.2
2269,43.0
2270,8.9
2274,26.7
2276,48.7
2277,39.1
2278,23.6
2279,31.1
2280,28.6
2282,40.7
2284,38.3
2287,39.0
2288,32.9
2289,-7.2
2290,21.4
2291,29.1
2292,38.7
2294,17.0
2296,51.4
2299,49.5
2300,51.9
2301,49.1
2303,45.3
2304,29.4
2306,26.0
2312,28.8
2313,14.9
2317,14.2
2318,4.5
2321,48.1
2322,42.8
2323,50.6
2324,33.9
2325,27.8
2326,36.2
2327,14.5
2329,7.9
2333,6.8
2334,43.8
2335,18.5
2336,49.7
2338,6.1
2339,6.8
2341,46.1
2342,17.9
2345,35.1
2346,29.8
2347,10.8
2350,20.5
2353,15.0
2358,36.5
2360,27.1
2362,40.0
2364,50.1
2365,17.5
2367,50.6
2368,11.5
2369,-9.8
2370,15.0
2371,44.4
2376,2.6
2378,20.2
2379,18.2
2380,49.3
2381,14.0
2384,22.6
2391,3.5
2393,31.3
2396,18.1
2397,49.2
2398,32.4
2404,28.8
2405,14.5
2408,31.1
2414,37.2
2415,15.9
2416,45.2
2417,23.6
2420,9.4
2422,4.7
2423,4.9
2426,8.2
2428,8.9
2429,46.1
2432,38.1
2434,42.5
2435,37.3
2437,23.6
2438,29.0
2445,6.6
2446,27.3
2447,48.0
2448,-4.7
2450,34.6
2451,27.7
2452,31.8
2453,40.4
2454,50.4
2456,9.5
2460,51.9
2462,46.5
2464,9.0
2465,28.5
2466,27.0
2468,5.5
2470,15.1
2471,28.8
2478,18.2
2483,33.9
2487,8.8
2490,13.4
2494,21.0
2495,47.6
2499,33.9
2501,11.6
2505,10.8
2508,17.6
2509,49.6
2510,13.1
2512,51.8
2514,2.9
2516,33.9
2517,16.7
2520,10.0
2521,6.7
2522,40.6
2524,49.5
2525,29.6
2529,-9.8
2534,18.6
2535,29.4
2540,49.3
2544,36.3
2545,48.9
2548,33.4
2551,31.3
2556,41.3
2557,50.7
2558,19.3
2560,2.9
2563,31.3
2565,35.3
2571,46.6
2574,18.5
2575,7.7
2578,3.6
2579,25.2
2580,10.6
2582,4.8
2583,23.3
2584,3.2
2585,8.2
2588,6.3
2589,30.1
2592,28.1
2594,24.9
2596,18.5
2597,3.5
2599,38.2
2605,39.3
2606,10.8
2608,-4.7
2609,51.2
2611,8.4
2612,38.8
2617,48.3
2619,51.9
2623,23.4
2627,19.5
2630,26.2
2631,8.3
2632,34.7
2634,15.2
2636,28.6
2637,20.7
2638,26.9
2640,23.5
2641,33.9
2642,39.6
2643,13.2
2646,42.7
2649,46.6
2650,47.7
2652,39.7
2653,21.0
2654,17.6
2656,38.3
2658,50.5
2659,17.3
2661,10.9
2663,9.2
2665,13.3
2667,24.0
2669,51.4
2675,44.6
2676,33.9
2677,17.0
2679,43.3
2680,3.3
2681,33.1
2684,18.6
2685,2.3
2688,-9.8
2690,27.0
2692,39.2
2693,33.3
2697,12.2
2699,51.9
2700,38.6
2703,26.6
2704,9.4
2705,13.7
2706,29.9
2707,23.1
2708,26.6
2710,28.8
2712,22.5
2716,10.5
2717,49.0
2721,39.8
2722,31.3
2723,39.5
2725,8.3
2728,24.9
2730,49.6
2731,21.7
2732,51.3
2733,27.5
2734,15.9
2735,44.4
2738,37.2
2740,21.4
2741,19.6
2742,36.9
2743,22.0
2745,8.2
2747,9.6
2750,8.5
2752,51.2
2755,15.9
2760,49.8
2761,33.1
2763,24.1
2764,51.9
2766,-4.7
2769,44.6
2770,24.1
2771,44.8
2772,15.5
2773,33.2
2775,25.7
2776,43.5
2778,51.9
2781,35.1
2782,30.9
2786,34.0
2790,23.6
2794,20.1
2798,3.8
2800,50.7
2801,33.9
2802,7.4
2803,27.5
2804,27.0
2806,26.2
2808,17.1
2809,9.3
2812,21.0
2813,13.8
2816,45.2
2817,42.6
2818,17.4
2821,17.4
2824,10.8
2825,23.0
2826,38.9
2828,20.9
2830,9.6
2832,7.5
2834,6.3
2835,31.3
2836,41.5
2837,23.6
2840,14.6
2845,38.9
2846,-9.8
2847,19.8
2849,19.8
2851,30.7
2852,10.6
2853,50.5
2854,35.0
2856,15.8
2858,16.2
2859,49.3
2861,42.9
2864,40.3
2865,7.1
2870,28.8
2872,37.5
2875,26.7
2876,11.8
2880,29.5
2881,31.3
2882,28.6
2883,25.2
2884,2.1
2885,35.4
2886,13.7
2887,13.3
2889,35.9
2890,41.4
2892,18.5
2895,27.0
2898,45.2
2899,42.3
2902,38.2
2904,8.2
2908,28.4
2910,15.9
2912,42.1
2913,28.8
2914,13.3
2918,51.7
2921,22.3
2923,45.3
2924,2.9
2925,44.3
2926,-4.7
2927,42.8
2931,51.6
2933,11.1
2934,10.0
2935,45.9
2937,51.9
2938,17.6
2940,34.8
2941,15.9
2944,42.1
2946,11.3
2949,26.2
2950,45.2
2951,7.9
2956,22.1
2957,17.5
2960,36.5
2962,39.2
2964,28.4
2967,2.2
2968,49.3
2969,26.8
2970,7.0
2971,23.6
2972,38.5
2973,45.6
2975,21.3
2976,51.4
2978,12.1
2979,5.1
2982,13.3
2995,28.8
3006,-9.8
3008,36.9
3009,7.3
3011,24.3
3012,43.4
3013,33.1
3016,47.6
3017,51.9
3019,4.5
3021,6.5
3022,15.8
3023,48.9
3025,12.5
3026,47.9
3027,25.7
3028,28.8
3029,7.8
3030,7.3
3031,36.5
3033,39.4
3034,31.5
3035,25.3
3036,34.6
3037,22.7
3039,41.0
3040,31.3
3042,7.2
3045,33.5
3048,21.4
3050,48.4
3051,18.5
3052,40.0
3054,49.0
3056,36.2
3057,32.8
3058,39.6
3059,4.5
3060,27.4
3062,6.9
3063,8.2
3066,34.4
3067,44.3
3070,33.8
3073,43.1
3074,10.8
3075,18.4
3077,20.2
3082,2.5
3085,-4.7
3086,8.0
3088,12.3
3092,23.9
3095,13.2
3096,51.9
3099,28.5
3100,37.3
3103,3.1
3107,26.2
3108,48.1
3110,29.9
3115,35.8
3117,43.9
3118,28.1
3119,36.5
3120,2.2
3126,8.9
3129,25.4
3131,23.6
3132,40.0
3134,37.8
3135,25.4
3139,49.3
3140,7.3
3141,3.4
3142,13.3
3143,36.5
3144,7.6
3148,32.8
3149,50.8
3153,26.2
3154,9.7
3156,46.7
3157,35.8
3159,46.0
3161,31.4
3162,51.4
3163,14.6
3164,26.5
3165,-7.2
3166,8.0
3167,11.9
3168,18.9
3169,13.3
3170,24.4
3171,23.0
3172,45.2
3174,47.0
3175,2.3
3176,51.9
3177,41.9
3182,29.4
3183,35.7
3184,37.8
3186,20.3
3187,19.6
3188,28.8
3190,45.4
3192,27.0
3193,2.7
3195,34.6
3197,35.5
3198,16.7
3200,33.9
3203,41.9
3205,8.7
3208,45.8
3210,50.2
3211,21.0
3215,10.1
3216,43.2
3217,21.5
3218,3.9
3219,51.7
3222,10.8
3225,32.1
3226,40.2
3227,29.6
3230,44.3
3232,15.0
3233,36.5
3234,35.3
3236,3.0
3237,42.0
3240,36.1
3241,19.8
3243,23.8
3244,36.5
3245,-9.8
3246,14.3
3248,44.5
3252,47.7
3254,20.2
3257,46.8
3260,39.4
3261,45.9
3265,9.1
3267,18.1
3268,28.8
3270,38.8
3271,43.9
3272,46.7
3274,43.2
3275,21.4
3277,2.2
3279,26.2
3280,48.4
3282,12.9
3283,20.2
3284,51.0
3285,49.7
3286,34.4
3287,40.3
3288,46.6
3289,9.8
3291,13.3
3295,44.4
3296,37.1
3297,36.7
3298,33.0
3300,45.3
3301,30.9
3302,8.2
3305,16.4
3306,44.8
3307,27.2
3309,13.0
3310,2.5
3311,47.6
3312,23.6
3313,38.9
3314,32.0
3317,42.5
3319,42.7
3320,17.8
3322,13.4
3323,9.4
3324,-7.2
3325,20.4
3330,5.6
3333,25.8
3334,20.2
3336,54.5
3337,42.4
3339,29.5
3340,21.4
3347,26.2
3351,16.5
3356,37.6
3358,33.9
3361,14.3
3365,35.4
3369,18.5
3373,48.8
3380,45.1
3381,10.8
3382,13.6
3384,29.5
3388,6.7
3393,36.5
3394,18.3
3395,43.0
3396,46.0
3400,15.8
3401,26.9
3403,15.0
3404,-9.8
3405,51.7
3407,26.5
3410,43.0
3411,31.3
3413,23.2
3416,49.3
3418,50.0
3420,18.0
3423,14.3
3427,28.8
3428,18.8
3432,39.2
3435,47.7
3436,7.6
3438,31.3
3442,29.3
3446,5.8
3447,24.5
3448,26.6
3449,15.9
3450,42.4
3451,8.7
3452,31.6
3453,40.3
3454,26.9
3456,6.9
3462,5.6
3463,20.1
3465,9.7
3466,44.7
3467,34.0
3468,40.1
3469,42.6
3470,25.1
3471,13.4
3472,21.0
3475,21.2
3479,9.7
3481,41.3
3483,-4.7
3486,23.8
3488,38.9
3489,51.5
3492,40.6
3493,23.1
3494,51.9
3498,25.1
3499,9.1
3505,19.9
3506,26.2
3508,24.1
3510,3.4
3511,12.2
3515,43.3
3516,25.2
3517,36.5
3518,20.1
3520,42.3
3528,39.7
3529,23.6
3530,26.0
3534,51.7
3535,39.6
3537,26.1
3540,10.8
3541,38.1
3543,12.8
3544,26.3
3546,17.3
3548,13.4
3550,2.8
3551,11.3
3552,33.9
3554,24.1
3556,43.1
3561,44.0
3562,27.2
3563,-7.2
3565,18.2
3567,25.0
3574,49.3
3576,11.1
3578,4.5
3581,30.1
3582,18.6
3585,40.5
3586,21.7
3587,28.8
3588,28.4
3595,51.1
3596,46.7
3598,28.8
3602,11.3
3603,27.8
3604,17.0
3605,4.3
3609,18.5
3610,22.8
3612,14.5
3614,2.5
3617,34.6
3618,20.9
3620,8.2
3621,12.3
3623,25.9
3628,5.4
3631,15.9
3633,43.7
3634,12.3
3637,18.9
3642,-4.7
3643,38.3
3645,50.3
3649,22.0
3651,22.9
3652,8.9
3653,32.2
3654,51.9
3655,12.9
3656,28.5
3658,38.1
3663,43.8
3664,32.4
3665,28.8
3667,22.3
3668,35.6
3669,3.5
3670,15.2
3673,47.9
3675,28.2
3677,36.5
3678,21.7
3679,36.0
3681,10.8
3683,36.7
3685,41.0
3688,21.0
3690,40.9
3695,15.0
3698,19.3
3699,13.3
3705,3.3
3706,28.2
3709,43.7
3710,33.9
3712,40.6
3715,25.7
3716,30.9
3718,39.1
3721,49.8
3722,18.4
3723,-9.8
3725,44.7
3726,23.5
3728,14.9
3731,2.4
3734,51.9
3738,11.6
3740,34.8
3742,18.1
3745,28.8
3746,24.5
3747,38.8
3755,27.0
3756,46.1
3757,31.3
3759,27.0
3760,19.0
3762,14.7
3763,23.8
3764,5.8
3765,37.2
3766,3.4
3768,18.5
3769,43.6
3770,28.3
3771,9.4
3774,11.0
3775,12.5
3779,10.8
3782,22.1
3783,43.9
3785,24.8
3786,12.3
3787,5.0
3788,10.8
3789,49.2
3790,9.4
3791,41.6
3792,7.2
3794,40.1
3796,43.8
3799,43.5
3803,-12.4
3804,34.6
3810,26.5
3811,32.3
3815,41.6
3816,50.4
3817,7.3
3818,10.2
3819,41.0
3820,9.9
3823,46.2
3825,20.6
3826,28.8
3829,16.4
3830,43.9
3832,22.2
3833,29.7
3834,3.6
3836,10.8
3837,18.5
3838,7.2
3839,23.2
3842,30.9
3843,12.4
3845,44.8
3846,11.0
3849,5.6
3851,3.5
3852,11.0
3856,22.7
3860,5.6
3862,50.1
3863,30.4
3864,29.5
3866,6.8
3867,51.0
3870,31.3
3872,15.3
3876,35.9
3878,15.4
3881,-7.2
3882,43.4
3885,5.0
3886,29.3
3887,45.4
3891,24.5
3892,46.2
3893,51.9
3898,40.0
3899,48.1
3901,42.3
3904,28.8
3905,6.0
3906,48.2
3909,24.3
3910,40.9
3912,46.4
3913,36.3
3914,49.1
3915,33.9
3919,16.6
3920,11.9
3923,11.2
3924,43.8
3926,11.2
3927,47.8
3928,18.5
3931,20.8
3933,13.2
3935,7.7
3936,42.4
3937,10.0
3938,15.9
3939,10.8
3941,24.2
3943,50.9
3945,47.8
3947,2.3
3948,13.1
3949,30.1
3950,39.1
3955,39.1
3956,39.8
3958,18.3
3960,5.0
3961,-9.8
3962,46.0
3965,32.8
3966,32.6
3968,51.3
3973,49.3
3974,18.3
3976,36.9
3980,12.9
3982,32.2
3985,31.3
3986,8.4
3993,37.0
3994,51.6
3995,26.7
3996,26.2
3997,29.0
3999,6.4
4001,46.7
4003,7.9
4007,15.9
4010,21.4
4017,19.4
4018,4.4
4019,8.2
4024,50.7
4028,30.2
4029,28.8
4030,23.5
4033,8.3
4034,23.5
4036,23.0
4037,21.8
4038,18.6
4040,-7.2
4041,10.6
4042,45.2
4043,29.6
4045,17.2
4046,50.9
4047,31.4
4051,15.2
4052,51.9
4055,39.4
4056,31.3
4058,3.2
4059,38.1
4064,26.2
4067,27.3
4071,29.3
4073,17.1
4074,2.1
4075,33.9
4076,39.4
4079,51.7
4080,39.7
4086,21.0
4087,44.3
4090,3.1
4093,4.2
4094,2.5
4098,10.8
4099,37.7
4104,7.2
4106,50.0
4107,44.2
4108,31.8
4109,39.1
4117,10.3
4119,40.6
4121,-9.8
4124,47.2
4127,40.8
4131,49.2
4132,49.3
4133,46.1
4134,13.9
4135,3.6
4138,15.0
4141,30.6
4143,3.7
4144,31.3
4145,13.3
4148,46.9
4151,19.4
4152,11.6
4154,12.3
4155,26.2
4157,2.3
4160,10.4
4161,19.9
4165,4.0
4166,15.9
4168,42.5
4173,47.3
4177,5.6
4180,42.3
4182,19.2
4183,50.7
4187,7.7
4189,26.2
4199,46.2
4200,-7.2
4201,13.3
4208,18.9
4210,18.4
4211,49.3
4214,37.9
4215,46.9
4217,13.3
4221,22.2
4222,28.8
4223,27.2
4224,29.7
4229,30.0
4231,36.8
4232,12.4
4233,11.7
4234,33.9
4240,40.8
4241,11.6
4245,21.0
4246,10.1
4250,44.5
4252,21.7
4253,10.2
4254,23.3
4257,10.8
4258,2.4
4259,28.9
4261,19.3
4269,36.5
4270,39.3
4271,28.9
4275,34.3
4277,8.1
4278,43.6
4279,41.4
4280,-9.8
4282,39.6
4283,6.5
4285,46.0
4286,4.9
4287,41.0
4291,49.3
4296,39.6
4299,21.6
4300,47.4
4301,32.6
4302,31.3
4303,32.7
4305,49.6
4306,7.9
4307,14.1
4310,26.8
4313,11.9
4314,28.8
4315,26.1
4316,17.4
4322,20.6
4323,10.0
4324,47.3
4325,21.2
4326,15.9
4327,31.8
4328,45.3
4329,34.0
4330,30.3
4331,47.1
4333,19.1
4334,51.3
4335,6.9
4337,8.2
4339,8.6
4340,21.8
4341,5.8
4343,13.5
4347,21.0
4348,26.1
4349,13.6
4350,22.0
4351,49.2
4353,44.7
4359,-7.2
4360,15.7
4363,17.9
4364,35.4
4365,27.4
4366,47.9
4368,14.6
4370,51.9
4371,7.1
4372,47.3
4375,37.1
4376,46.5
4378,23.3
4380,24.4
4381,26.2
4382,40.3
4387,3.3
4388,30.6
4389,9.9
4390,39.1
4392,28.7
4393,33.9
4394,15.4
4396,45.7
4397,15.5
4399,11.6
4401,37.3
4402,5.1
4403,36.6
4405,18.5
4407,45.0
4409,19.7
4410,17.9
4415,15.5
4416,13.3
4422,38.0
4427,33.9
4428,9.0
4432,31.1
4433,7.3
4436,13.9
4437,44.1
4439,-9.8
4440,27.9
4441,24.1
4447,47.9
4448,25.0
4450,49.3
4451,9.0
4454,25.3
4457,50.7
4462,28.8
4465,20.7
4466,39.1
4469,45.0
4473,31.3
4475,9.7
4477,6.7
4483,29.3
4485,15.9
4486,37.4
4488,14.7
4492,41.9
4493,18.1
4494,48.6
4496,8.2
4498,41.6
4499,31.5
4502,38.8
4503,50.5
4504,17.1
4506,18.5
4515,29.1
4517,26.6
4518,-4.7
4522,23.6
4529,33.7
4530,51.9
4531,43.5
4532,11.9
4533,12.4
4534,13.7
4535,10.5
4536,31.5
4540,29.9
4541,26.2
4542,19.7
4543,19.9
4544,32.9
4546,4.9
4547,19.0
4548,37.8
4549,35.3
4552,36.5
4554,50.0
4555,15.7
4559,46.2
4561,18.7
4562,27.2
4563,21.0
4564,41.2
4566,38.8
4567,28.5
4569,43.5
4570,29.1
4571,50.6
4572,18.0
4575,13.3
4576,23.9
4578,41.7
4580,8.7
4581,41.4
4582,2.9
4583,27.4
4584,21.9
4586,8.3
4587,31.3
4588,31.2
4589,10.4
4591,17.3
4593,12.8
4594,41.0
4597,45.7
4598,-7.2
4599,38.9
4601,6.0
4602,31.3
4603,10.4
4606,10.0
4608,11.2
4609,19.5
4610,51.9
4612,39.7
4613,28.7
4615,19.6
4616,41.8
4619,48.7
4620,22.3
4621,28.8
4622,39.8
4624,51.4
4629,24.4
4630,29.6
4632,31.3
4635,11.4
4637,40.0
4643,18.5
4645,46.0
4648,34.3
4649,6.5
4652,49.3
4655,41.6
4656,8.2
4657,14.3
4661,15.7
4662,16.4
4664,30.7
4665,31.7
4666,15.9
4667,41.4
4668,32.3
4669,34.8
4671,21.7
4672,43.6
4673,24.2
4676,8.7
4677,-4.7
4679,21.9
4681,15.1
4682,43.6
4684,19.1
4685,44.0
4686,50.1
4687,20.1
4688,51.9
4690,11.7
4691,5.3
4692,43.8
4694,34.4
4698,2.9
4699,13.6
4700,23.6
4702,5.7
4703,38.9
4710,6.2
4711,36.5
4712,13.0
4713,20.5
4714,12.0
4715,33.0
4716,8.7
4717,16.9
4719,25.2
4722,6.3
4723,21.0
4724,31.6
4726,21.1
4727,2.3
4728,4.3
4730,50.3
4733,48.6
4734,13.3
4735,9.2
4739,26.3
4743,3.9
4744,22.0
4745,22.0
4746,28.8
4747,48.2
4750,39.4
4751,43.5
4753,4.7
4755,50.8
4756,45.5
4757,-7.2
4759,21.5
4761,12.9
4763,28.3
4764,49.0
4766,2.5
4768,51.9
4769,30.6
4770,13.4
4772,10.7
4775,15.6
4776,6.5
4777,43.3
4778,35.0
4779,44.9
4780,28.8
4785,35.7
4786,12.3
4788,45.4
4791,11.9
4792,33.9
4798,22.5
4801,2.6
4803,15.9
4805,48.8
4810,32.9
4813,16.2
4814,10.8
4815,6.7
4816,23.8
4817,8.9
4818,12.0
4819,7.0
4820,19.4
4821,47.0
4826,41.6
4827,16.4
4828,47.8
4829,11.8
4831,10.9
4833,25.5
4834,46.7
4835,28.2
4837,-12.4
4838,25.8
4839,23.0
4842,47.9
4843,3.6
4844,44.9
4845,12.4
4846,14.6
4847,16.6
4849,41.6
4850,33.2
4851,4.3
4853,15.9
4854,23.4
4856,5.5
4857,18.4
4858,19.0
4859,27.6
4860,24.1
4861,26.2
4863,51.9
4870,43.8
4871,26.7
4872,32.8
4873,21.0
4874,11.4
4875,17.0
4879,11.1
4881,46.1
4882,16.4
4884,8.2
4885,13.0
4888,17.4
4890,40.6
4892,5.9
4893,26.8
4894,8.2
4896,13.0
4898,19.3
4901,41.0
4902,41.8
4903,27.0
4904,26.2
4906,21.4
4909,14.8
4916,30.5
4917,-7.2
4918,51.9
4919,10.3
4921,45.7
4922,40.6
4926,20.5
4928,51.9
4930,13.3
4931,44.1
4934,8.8
4935,30.0
4936,4.1
4938,36.4
4939,28.8
4943,10.6
4945,27.8
4948,38.7
4949,15.3
4951,33.9
4952,34.6
4954,51.0
4957,2.2
4959,18.9
4960,27.0
4962,18.5
4963,18.9
4966,46.3
4968,26.1
4969,49.2
4972,10.7
4973,10.8
4975,21.5
4979,15.9
4981,18.1
4984,31.5
4985,39.1
4987,2.8
4989,41.9
4992,31.1
4994,13.0
4995,28.7
4996,15.1
4997,-12.4
5005,23.4
5006,17.2
5007,44.3
5009,44.2
5010,33.8
5013,38.9
5017,16.7
5018,24.8
5019,49.8
5020,28.8
5021,28.1
5031,21.0
5035,15.8
5036,24.9
5038,21.8
5040,20.8
5043,8.2
5045,29.1
5047,24.6
5048,34.6
5054,5.6
5057,44.8
5059,45.9
5064,23.6
5069,14.8
5075,-7.2
5076,22.7
5077,25.4
5078,36.0
5079,21.4
5080,13.7
5081,29.7
5082,42.5
5086,50.2
5087,51.9
5088,5.4
5090,35.0
5093,46.1
5098,26.2
5100,6.4
5101,20.6
5102,27.9
5104,32.4
5108,3.7
5109,33.9
5111,5.0
5112,24.6
5113,48.2
5115,10.3
5116,44.2
5120,2.6
5121,27.9
5122,18.5
5124,18.7
5125,36.9
5130,34.5
5133,10.8
5134,43.9
5137,21.3
5138,16.5
5142,13.8
5144,36.5
5146,22.6
5149,46.1
5150,3.7
5152,47.0
5155,-7.2
5167,49.3
5168,13.4
5169,14.4
5170,15.4
5174,23.2
5178,31.3
5181,27.5
5188,12.6
5190,28.8
5191,21.8
5194,34.2
5195,35.3
5196,3.1
5198,22.2
5201,18.5
5202,37.0
5205,46.4
5207,8.0
5208,48.7
5213,8.2
5219,11.2
5220,11.2
5222,22.5
5223,21.0
5228,44.9
5231,47.6
5232,34.1
5234,-4.7
5235,40.8
5236,32.7
5237,40.6
5239,24.6
5240,34.4
5242,23.5
5245,49.3
5247,12.9
5249,40.0
5251,35.8
5252,42.4
5253,4.3
5255,25.5
5256,12.3
5258,26.2
5259,22.7
5262,17.2
5263,42.7
5264,36.8
5266,36.7
5267,45.4
5268,27.2
5269,33.9
5271,26.1
5275,22.0
5276,39.1
5278,17.7
5280,21.0
5281,51.7
5283,18.1
5284,3.1
5292,13.3
5295,35.5
5296,17.1
5297,8.9
5300,43.4
5301,36.7
5302,4.9
5303,36.5
5306,34.4
5314,-9.8
5316,30.1
5317,40.2
5318,40.2
5319,29.3
5320,22.1
5322,38.2
5324,3.5
5326,49.3
5327,21.5
5329,11.3
5331,5.1
5334,5.5
5335,40.2
5336,30.9
5338,28.8
5341,50.1
5342,46.8
5343,2.7
5348,11.6
5349,31.3
5350,42.5
5351,31.1
5354,40.3
5360,18.5
5361,27.4
5362,32.8
5363,35.6
5365,30.3
5366,28.8
5367,10.0
5368,8.0
5369,9.7
5370,37.1
5371,8.2
5374,50.3
5375,40.5
5381,40.6
5382,21.0
5383,13.7
5386,6.5
5389,38.9
5392,48.1
5394,-7.2
5396,28.7
5397,43.1
5399,17.4
5400,15.1
5404,22.3
5405,51.9
5408,16.6
5409,3.5
5411,37.9
5412,31.6
5413,36.3
5416,26.2
5417,35.2
5418,50.6
5419,6.4
5421,40.6
5426,49.9
5428,33.9
5430,17.1
5432,51.5
5434,32.1
5436,3.0
5437,16.1
5438,40.8
5439,21.0
5441,32.5
5446,22.9
5448,3.3
5451,13.3
5455,21.0
5460,11.0
5461,32.8
5463,33.9
5465,43.0
5467,24.0
5472,2.1
5474,-7.2
5475,14.9
5476,32.4
5480,10.1
5481,52.0
5482,13.6
5485,51.9
5488,47.6
5490,39.1
5493,15.9
5496,28.8
5497,41.3
5499,42.6
5500,36.9
5501,41.1
5503,36.7
5506,43.1
5507,5.8
5508,31.3
5509,38.2
5512,7.6
5514,25.6
5515,45.0
5516,2.3
5517,33.7
5518,49.7
5520,18.5
5524,15.6
5527,13.1
5528,7.7
5530,46.2
5531,10.8
5532,28.4
5533,45.2
5534,39.9
5538,48.1
5539,7.1
5540,34.5
5542,44.2
5543,14.6
5544,40.6
5547,48.1
5548,34.9
5550,47.1
5551,34.7
5554,-12.4
5555,6.7
5556,2.1
5557,49.0
5558,40.7
5559,7.7
5562,4.7
5564,32.0
5566,41.6
5567,9.8
5571,33.5
5573,4.1
5574,46.0
5577,26.2
5578,12.2
5580,27.7
5584,29.0
5586,27.9
5588,46.9
5589,50.0
5590,21.0
5591,5.3
5594,10.0
5600,9.5
5601,8.2
5605,10.3
5606,49.3
5608,29.5
5610,34.6
5611,5.6
5613,40.5
5614,43.6
5616,44.1
5619,18.3
5621,28.8
5623,49.3
5624,35.0
5625,3.0
5629,9.4
5630,27.4
5631,31.0
5632,18.9
5633,-7.2
5635,30.2
5636,34.1
5638,25.3
5639,15.8
5640,5.8
5641,29.0
5644,49.3
5650,23.1
5653,31.6
5654,7.6
5655,32.0
5656,28.8
5657,46.7
5659,44.9
5661,10.6
5663,25.6
5666,21.6
5667,31.3
5668,2.8
5671,3.7
5672,8.7
5675,2.8
5678,33.2
5679,18.5
5680,24.8
5681,33.8
5682,42.2
5684,51.7
5685,23.1
5686,35.6
5690,10.8
5691,46.1
5692,16.0
5693,12.9
5694,42.2
5695,21.1
5697,34.5
5698,34.1
5700,18.7
5701,39.1
5704,28.1
5706,43.1
5707,26.2
5709,2.3
5710,10.9
5711,38.8
5712,-12.4
5713,16.8
5715,35.1
5716,34.9
5723,16.9
5724,34.9
5725,20.7
5726,41.6
5728,22.4
5729,2.9
5730,6.5
5735,48.3
5736,49.8
5737,28.8
5740,24.9
5743,14.4
5744,11.1
5745,47.5
5746,30.5
5748,21.0
5749,22.3
5751,42.8
5753,37.2
5754,14.5
5760,8.2
5764,20.8
5765,40.1
5766,2.0
5768,47.9
5770,8.2
5771,16.7
5772,20.8
5773,8.6
5775,40.2
5776,36.5
5779,4.1
5780,28.8
5781,19.7
5784,36.9
5785,23.2
5786,27.1
5790,6.0
5792,-4.7
5793,28.6
5795,24.0
5799,20.4
5800,49.1
5804,49.3
5805,36.0
5807,50.5
5809,45.7
5810,43.4
5812,15.6
5814,45.9
5815,28.8
5818,27.5
5819,9.3
5820,19.6
5822,37.8
5824,24.6
5826,33.9
5827,26.9
5830,27.9
5834,15.8
5836,37.6
5837,21.0
5839,22.6
5843,52.0
5844,50.0
5847,13.5
5848,3.9
5850,10.8
5851,22.2
5853,25.2
5855,40.8
5856,50.5
5858,22.4
5859,31.3
5861,39.1
5862,8.5
5866,31.1
5869,30.3
5870,26.2
5872,-12.4
5876,47.6
5877,46.4
5879,47.3
5880,8.7
5881,4.5
5883,14.8
5884,44.2
5889,32.2
5890,21.3
5893,10.3
5894,22.5
5895,33.0
5896,28.8
5897,2.6
5898,22.8
5902,5.6
5904,24.7
5906,48.6
5907,21.0
5908,31.2
5911,10.8
5912,46.6
5913,20.8
5915,51.3
5919,8.2
5920,47.4
5924,49.4
5926,34.9
5927,9.7
5929,5.6
5930,47.7
5931,32.2
5935,49.6
5937,29.4
5940,26.2
5941,12.8
5943,39.6
5947,38.7
5949,45.3
5951,-4.7
5952,22.0
5957,27.7
5958,37.5
5959,24.5
5960,11.4
5961,47.8
5962,49.3
5963,23.7
5970,17.1
5971,14.4
5974,28.8
5976,28.3
5982,4.4
5983,49.4
5986,33.9
5990,42.4
5991,46.8
5992,42.7
5995,6.8
5997,21.0
6001,12.0
6002,28.4
6003,11.5
6004,40.2
6005,6.2
6006,51.6
6008,10.8
6009,22.1
6012,3.5
6016,46.8
6019,16.5
6020,36.5
6021,4.5
6022,50.9
6025,36.9
6027,48.5
6028,9.3
6030,32.8
6031,-9.8
6034,39.3
6037,5.4
6038,41.6
6041,39.1
6042,46.8
6044,35.1
6047,44.6
6048,45.5
6050,38.6
6051,30.2
6052,12.9
6053,7.9
6054,31.3
6055,12.2
6057,42.6
6058,26.8
6059,9.6
6060,33.8
6061,29.2
6065,8.6
6066,31.3
6074,31.6
6076,29.0
6077,15.9
6079,34.2
6080,43.6
6082,21.2
6085,10.0
6087,41.3
6088,8.2
6089,49.0
6090,8.8
6092,47.4
6098,21.0
6099,18.5
6100,50.5
6101,34.4
6103,4.8
6104,11.1
6106,18.8
6108,13.6
6109,30.5
6110,-4.7
6111,26.2
6113,23.3
6114,32.4
6116,42.0
6117,33.1
6118,15.1
6121,47.3
6122,49.3
6123,22.0
6124,47.8
6125,30.4
6126,50.8
6127,40.8
6128,48.1
6129,50.9
6131,3.7
6133,28.8
6134,51.4
6137,20.5
6139,28.7
6141,46.0
6144,6.3
6145,36.5
6146,34.9
6150,14.3
6151,48.8
6154,24.4
6155,22.4
6156,21.0
6161,7.0
6164,28.3
6166,30.6
6167,10.8
6171,50.9
6172,9.6
6175,40.2
6176,47.8
6178,33.9
6179,34.1
6181,40.6
6182,44.5
6186,2.3
6187,14.4
6189,49.0
6190,26.5
6191,-9.8
6200,8.0
6201,10.2
6202,49.3
6206,13.3
6207,5.6
6208,11.7
6212,35.0
6213,31.3
6214,17.8
6216,22.2
6223,2.6
6224,31.3
6227,26.8
6228,26.8
6230,34.1
6232,5.7
6234,51.5
6236,18.5
6237,19.5
6238,13.3
6239,6.3
6244,30.8
6247,35.2
6248,8.2
6250,50.3
6253,9.3
6256,18.7
6257,33.1
6258,15.9
6260,43.8
6261,31.9
6262,5.5
6267,11.9
6269,-4.7
6271,26.2
6274,12.5
6277,4.0
6278,16.9
6281,51.9
6282,11.2
6283,16.7
6284,51.8
6288,15.8
6289,24.4
6290,29.5
6292,28.8
6294,2.0
6299,15.5
6303,33.9
6309,23.6
6314,24.2
6316,21.0
6317,49.9
6318,22.8
6320,8.4
6321,13.3
6322,51.3
6323,48.2
6324,46.2
6325,36.6
6327,10.8
6329,25.5
6331,18.1
6338,31.3
6344,40.9
6345,32.4
6346,41.3
6348,33.5
6349,-9.8
6350,50.9
6351,36.4
6352,44.7
6353,50.7
6354,6.5
6355,36.8
6358,50.1
6360,10.3
6361,49.3
6371,28.9
6372,28.8
6374,19.4
6375,15.4
6376,21.2
6381,50.6
6382,3.9
6384,31.3
6385,42.7
6391,29.9
6393,19.7
6394,2.1
6395,18.5
6396,19.3
6402,39.1
6403,38.4
6406,42.4
6407,8.2
6413,18.0
6414,43.8
6415,15.0
6417,13.3
6418,37.9
6420,33.0
6422,35.5
6423,14.4
6425,35.3
6428,-4.7
6429,48.1
6430,4.3
6432,26.6
6433,25.6
6435,4.5
6436,2.6
6437,14.3
6438,43.4
6439,51.9
6440,2.6
6443,17.6
6447,46.6
6448,7.9
6449,15.8
6450,2.9
6452,23.6
6453,40.1
6455,32.2
6456,41.4
6458,29.3
6459,10.9
6460,42.2
6461,3.2
6462,12.5
6463,36.5
6467,21.1
6468,40.4
6474,21.0
6477,40.4
6483,38.9
6485,4.0
6486,15.9
6491,27.7
6492,47.8
6493,29.2
6494,22.0
6496,49.4
6497,28.8
6498,33.4
6500,36.7
6501,3.1
6502,24.2
6503,29.0
6504,9.6
6505,18.1
6506,32.4
6508,-9.8
6509,18.9
6510,50.5
6515,21.1
6516,36.6
6517,37.5
6518,12.3
6519,12.2
6520,49.3
6521,13.8
6526,38.0
6527,8.6
6528,4.8
6529,11.5
6532,28.8
6535,51.3
6540,17.0
6541,44.5
6543,31.3
6544,27.2
6545,27.4
6547,4.7
6548,40.4
6549,23.6
6551,4.1
6552,38.0
6554,18.5
6555,32.3
6556,26.1
6557,50.4
6558,31.8
6561,4.1
6565,10.8
6566,36.0
6567,7.9
6569,37.0
6572,6.6
6573,44.0
6574,43.1
6575,33.5
6576,51.0
6577,39.1
6583,45.3
6585,5.9
6587,12.0
6588,44.8
6589,-12.4
6590,9.3
6591,21.5
6593,7.0
6595,18.8
6596,15.8
6599,18.9
6601,44.2
6602,4.4
6607,10.2
6609,22.0
6610,11.3
6612,26.2
6614,8.0
6616,31.7
6617,22.2
6618,16.8
6621,24.7
6622,36.2
6623,51.4
6624,21.0
6625,9.3
6627,17.7
6628,32.0
6629,25.5
6630,2.4
6633,25.9
6634,15.6
6635,8.2
6636,37.6
6640,16.8
6641,38.3
6645,5.6
6648,49.9
6649,4.8
6650,28.6
6651,46.6
6652,40.6
6653,47.9
6657,26.2
6659,46.8
6661,6.0
6662,39.5
6663,16.5
6664,39.3
6665,43.1
6666,30.6
6668,-7.2
6671,38.5
6674,30.8
6679,51.9
6681,23.1
6685,41.6
6687,42.2
6690,26.2
6691,51.9
6693,8.6
6697,22.4
6698,14.4
6699,37.2
6700,30.8
6702,31.3
6704,48.1
6705,20.2
6706,50.8
6707,8.9
6708,21.2
6710,39.0
6712,17.1
6713,18.5
6714,8.5
6717,26.3
6718,29.8
6719,24.4
6720,12.8
6721,21.4
6722,22.1
6723,18.5
6725,13.3
6727,42.6
6728,21.7
6729,4.1
6731,21.8
6733,23.7
6735,2.4
6736,39.1
6738,4.2
6739,38.5
6740,46.4
6742,6.4
6744,33.7
6748,-12.4
6749,15.3
6753,2.4
6754,29.3
6759,8.0
6760,41.6
6762,45.0
6764,31.3
6768,31.6
6771,26.2
6772,51.4
6775,4.9
6777,39.0
6782,34.0
6784,21.0
6786,9.2
6788,8.8
6792,32.4
6794,18.9
6795,8.2
6796,36.4
6797,40.4
6798,25.0
6803,20.6
6805,8.2
6810,25.4
6811,31.9
6812,13.6
6814,7.6
6815,23.6
6816,34.5
6817,11.3
6826,21.6
6827,-4.7
6828,4.5
6829,37.8
6832,23.5
6835,8.7
6838,49.3
6839,50.4
6841,19.4
6842,42.7
6843,26.6
6846,16.8
6850,28.8
6851,18.1
6853,42.6
6855,51.1
6858,31.5
6859,8.9
6861,33.9
6863,18.0
6864,39.4
6865,50.1
6867,16.1
6869,16.3
6872,18.5
6873,18.5
6875,27.7
6882,8.2
6884,10.8
6885,2.8
6886,30.1
6887,37.9
6888,31.8
6889,19.4
6894,19.5
6895,36.5
6896,12.6
6905,46.3
6906,-12.4
6907,44.3
6909,40.1
6911,21.9
6912,22.3
6915,45.3
6916,31.9
6917,36.3
6920,44.2
6922,9.5
6925,26.7
6926,26.8
6927,17.7
6931,28.8
6932,22.4
6933,2.6
6937,50.5
6940,22.4
6941,42.5
6942,21.0
6943,44.0
6944,17.5
6947,23.2
6953,8.2
6955,24.4
6957,16.8
6959,45.2
6960,9.7
6961,23.1
6963,48.1
6964,8.2
6966,2.8
6968,11.8
6969,42.0
6970,5.1
6971,27.2
6974,21.0
6977,3.4
6979,20.7
6980,12.0
6981,2.2
6982,24.1
6983,36.0
6984,33.7
6985,6.5
6986,-4.7
6988,26.9
6989,6.7
6990,23.2
6995,19.3
6998,51.9
6999,24.0
7000,5.1
7001,8.4
7002,14.8
7003,5.8
7004,14.3
7007,18.3
7009,26.2
7010,24.1
7012,15.3
7013,37.5
7015,50.4
7016,38.6
7017,20.3
7019,6.9
7020,33.9
7022,42.6
7023,36.7
7025,51.4
7026,25.4
7027,4.7
7031,21.0
7034,38.1
7035,8.2
7037,48.7
7038,6.0
7039,34.1
7040,28.2
7041,30.8
7042,21.9
7043,10.8
7045,50.2
7049,48.8
7055,31.3
7056,44.4
7059,22.2
7061,12.7
7062,18.5
7066,-7.2
7067,46.3
7072,29.7
7074,11.7
7076,18.1
7077,49.3
7078,32.4
7081,15.2
7082,35.5
7085,25.0
7087,29.3
7089,31.3
7092,2.3
7094,36.3
7099,4.5
7100,31.3
7102,11.3
7104,14.1
7105,39.3
7106,25.9
7108,25.7
7109,38.6
7111,15.9
7112,29.1
7116,14.2
7118,2.3
7120,34.1
7122,30.2
7123,8.2
7132,10.2
7134,15.9
7135,32.2
7136,23.6
7138,14.1
7139,11.5
7140,42.9
7141,36.5
7145,-7.2
7147,32.2
7150,26.0
7151,41.3
7155,8.7
7156,49.3
7158,30.3
7160,45.0
7165,16.5
7167,4.0
7168,26.2
7169,45.4
7175,48.1
7176,18.1
7177,40.2
7179,33.9
7183,42.8
7185,48.7
7186,46.8
7191,21.0
7193,25.0
7197,32.9
7198,31.7
7199,11.3
7200,10.3
7202,13.3
7203,25.7
7204,13.8
7205,48.7
7206,10.0
7207,38.0
7209,45.4
7210,34.6
7212,4.3
7214,28.8
7215,13.9
7216,11.1
7217,30.8
7218,14.6
7219,51.6
7220,5.3
7221,32.8
7222,13.4
7225,-9.8
7226,41.9
7232,27.8
7233,16.7
7234,12.6
7236,49.3
7238,16.8
7239,35.0
7240,32.2
7242,28.3
7243,46.5
7244,2.5
7245,35.6
7246,18.6
7247,18.1
7248,28.8
7253,6.2
7254,44.1
7259,36.5
7260,28.8
7261,8.3
7264,21.5
7270,47.7
7271,15.9
7272,24.1
7276,23.8
7277,36.5
7278,33.1
7280,12.1
7282,10.8
7287,50.0
7288,8.2
7289,2.2
7290,43.6
7291,41.4
7293,41.6
7294,51.2
7297,12.7
7298,9.7
7299,40.7
7300,23.6
7302,33.3
7305,-12.4
7307,41.0
7309,47.7
7313,26.6
7314,25.4
7316,12.9
7318,44.2
7322,49.0
7325,22.7
7329,28.8
7330,38.3
7331,37.0
7332,3.7
7336,21.9
7337,48.4
7340,38.5
7341,18.5
7343,3.4
7344,42.1
7346,2.2
7350,29.9
7352,8.2
7354,4.6
7362,5.6
7363,20.9
7365,3.7
7366,32.7
7368,10.5
7369,27.2
7372,28.8
7373,17.2
7374,33.5
7375,6.2
7377,43.2
7379,34.0
7380,41.6
7383,16.9
7384,4.7
7385,-7.2
7386,46.9
7387,15.5
7390,35.8
7392,45.4
7393,25.7
7395,39.9
7396,49.3
7398,27.3
7399,23.4
7401,23.0
7403,20.6
7406,48.3
7407,26.2
7408,44.1
7409,23.5
7414,10.0
7415,44.1
7416,14.3
7417,22.2
7418,31.3
7420,42.2
7422,35.1
7425,19.8
7426,44.3
7428,42.5
7430,18.5
7435,22.2
7436,49.8
7437,15.1
7441,8.2
7443,22.6
7450,5.5
7451,30.7
7452,8.2
7458,15.4
7461,31.8
7462,3.0
7463,34.3
7464,12.4
7465,28.1
7467,12.9
7469,31.4
7470,40.5
7472,36.0
7473,36.5
7479,39.4
7480,43.9
7482,37.4
7484,-9.8
7485,44.1
7486,31.9
7487,5.9
7488,31.9
7489,37.3
7490,23.4
7491,31.5
7493,33.0
7495,49.3
7498,17.7
7500,17.7
7501,45.3
7504,31.9
7506,28.8
7516,42.0
7519,28.8
7521,12.4
7522,43.2
7524,40.8
7529,23.8
7530,15.9
7532,12.8
7533,8.6
7534,13.1
7536,31.5
7537,46.7
7540,7.1
7541,5.6
7546,7.0
7551,37.9
7552,21.0
7555,31.3
7558,48.7
7559,28.7
7563,-4.7
7566,34.5
7569,35.0
7574,49.3
7576,47.5
7578,18.5
7579,16.4
7581,48.6
7582,13.4
7586,26.2
7587,2.8
7588,37.0
7595,11.1
7596,24.5
7598,33.9
7600,39.1
7602,51.4
7604,45.8
7609,18.5
7611,8.9
7612,11.7
7613,31.6
7615,28.6
7616,47.8
7617,49.0
7620,10.8
7621,17.0
7625,43.3
7627,48.5
7629,10.1
7631,33.9
7633,21.9
7634,25.1
7638,27.2
7642,26.6
7643,-7.2
7646,44.4
7647,40.7
7650,28.3
7652,47.4
7653,8.4
7654,24.5
7655,49.3
7656,34.1
7657,34.4
7660,4.9
7661,34.9
7662,50.6
7663,16.5
7666,28.8
7667,21.4
7668,4.5
7669,36.9
7671,51.4
7673,12.0
7676,38.2
7677,31.3
7679,30.8
7680,20.5
7681,17.3
7684,39.4
7686,30.7
7689,15.9
7690,28.8
7691,45.5
7693,15.6
7696,3.2
7697,36.0
7700,8.2
7701,27.8
7702,36.3
7706,33.2
7707,30.4
7708,41.8
7709,11.6
7710,18.5
7711,35.9
7712,14.1
7713,2.2
7715,33.0
7718,47.9
7719,9.7
7720,21.7
7721,8.0
7723,-4.7
7725,44.0
7727,5.0
7728,46.0
7731,22.9
7732,21.2
7733,8.6
7734,51.9
7737,6.9
7738,18.1
7742,47.0
7744,38.6
7745,26.2
7747,36.2
7748,22.3
7749,15.9
7754,27.0
7756,33.9
7757,48.3
7758,49.4
7759,18.1
7763,39.6
7764,19.9
7765,26.7
7766,7.0
7767,50.3
7768,21.0
7770,14.7
7771,23.5
7772,2.3
7773,4.6
7776,28.2
7778,18.9
7779,41.3
7780,10.8
7782,22.7
7784,28.5
7787,8.6
7788,36.2
7789,19.9
7791,33.9
7794,22.7
7797,19.6
7801,18.3
7802,-7.2
7803,9.7
7806,46.6
7807,45.1
7809,15.0
7810,40.5
7812,31.4
7814,49.3
7815,25.6
7816,16.8
7817,9.2
7819,44.4
7822,12.1
7825,28.8
7827,28.5
7828,47.6
7831,51.9
7832,2.8
7834,40.8
7836,31.3
7837,43.8
7839,43.0
7841,45.4
7842,38.5
7845,24.6
7846,49.9
7848,18.5
7850,22.4
7851,4.3
7852,33.1
7856,42.5
7858,15.4
7860,8.2
7861,47.8
7862,27.6
7865,22.6
7866,10.7
7867,41.9
7868,18.6
7869,4.4
7870,15.9
7872,32.6
7873,28.7
7875,3.5
7876,32.4
7877,45.6
7879,39.3
7880,12.6
7881,-4.7
7882,35.4
7883,2.6
7887,40.5
7889,33.9
7892,51.9
7897,43.2
7899,25.8
7901,26.2
7903,44.2
7904,23.6
7906,43.1
7912,30.8
7915,26.3
7916,33.9
7918,44.0
7920,18.8
7923,9.6
7924,15.4
7925,12.5
7927,21.0
7928,21.5
7929,15.5
7934,2.7
7936,17.9
7938,4.1
7939,13.3
7940,12.2
7942,39.7
7946,20.9
7947,36.6
7948,17.0
7950,28.8
7951,27.5
7955,51.2
7956,30.7
7958,26.9
7961,-7.2
7965,34.0
7970,13.1
7971,14.6
7972,51.9
7973,2.9
7976,18.8
7978,43.4
7980,40.1
7982,4.3
7984,34.9
7985,28.8
7986,23.6
7987,10.4
7988,32.8
7989,15.5
7990,34.5
7991,42.4
7992,4.2
7994,13.7
7996,31.3
7997,6.5
7999,47.6
8002,32.0
8004,40.1
8006,18.6
8007,18.5
8008,16.0
8010,44.1
8015,2.9
8016,11.6
8018,10.8
8021,17.6
8023,4.0
8024,6.8
8025,39.2
8026,35.2
8027,25.6
8030,39.1
8031,28.6
8034,25.0
8035,32.5
8036,49.8
8041,-12.4
8045,7.7
8046,17.4
8048,27.7
8052,23.3
8054,44.2
8059,15.4
8060,47.5
8061,28.1
8062,9.9
8063,2.2
8065,28.1
8066,26.2
8068,38.2
8069,44.0
8070,18.0
8077,21.0
8078,34.1
8083,45.7
8084,36.8
8085,42.3
8087,15.8
8088,8.2
8091,30.5
8092,10.0
8094,34.3
8095,13.0
8097,50.6
8098,5.6
8101,23.5
8104,38.8
8105,20.0
8106,29.4
8109,26.2
8111,37.8
8113,39.8
8115,10.3
8117,23.0
8118,26.0
8119,48.4
8120,12.5
8121,-7.2
8122,44.5
8123,24.2
8124,37.0
8126,21.2
8128,11.1
8129,31.5
8132,51.9
8133,34.9
8135,34.1
8136,36.1
8137,20.6
8138,51.1
8140,28.5
8143,26.2
8145,46.7
8152,40.2
8153,25.4
8154,27.0
8155,33.9
8156,16.7
8157,9.3
8163,21.1
8164,20.1
8165,19.0
8166,21.0
8167,17.6
8168,33.1
8169,31.7
8171,3.2
8172,23.0
8173,9.6
8177,10.8
8178,8.7
8179,38.2
8181,13.0
8184,25.7
8187,24.5
8188,27.1
8189,36.5
8191,31.0
8199,51.0
8200,46.2
8201,-9.8
8204,13.4
8207,36.0
8208,30.7
8209,3.8
8210,42.6
8212,49.3
8213,40.1
8214,23.4
8218,43.2
8223,28.8
8224,45.6
8225,37.7
8226,33.4
8227,24.4
8229,35.6
8235,28.8
8236,29.6
8240,42.5
8242,51.2
8244,31.0
8245,37.2
8246,5.5
8247,15.9
8248,41.6
8251,23.0
8252,17.7
8256,12.1
8258,8.2
8259,28.2
8261,51.4
8263,45.9
8264,29.2
8267,33.2
8268,23.6
8269,4.0
8274,24.6
8276,12.5
8280,-7.2
8283,27.7
8285,19.6
8289,5.2
8290,26.7
8291,51.9
8295,4.9
8296,31.1
8297,20.5
8298,51.4
8301,40.1
8302,28.8
8304,33.4
8306,10.4
8308,43.3
8309,12.5
8313,15.2
8314,31.3
8315,27.6
8318,22.6
8320,28.3
8322,45.1
8324,50.0
8325,36.3
8326,18.5
8330,21.9
8332,9.5
8333,31.7
8335,36.1
8336,11.0
8337,10.8
8341,48.8
8343,41.3
8344,32.1
8345,33.6
8346,18.7
8348,36.5
8349,6.4
8351,45.9
8353,29.3
8355,9.7
8357,30.4
8359,-9.8
8361,41.5
8363,28.1
8364,21.3
8365,34.8
8368,40.1
8369,27.5
8371,49.3
8373,8.7
8375,42.4
8377,34.4
8379,26.4
8383,28.8
8384,47.8
8385,21.4
8387,40.0
8389,50.3
8390,3.8
8391,7.9
8392,24.7
8394,28.8
8397,8.6
8398,26.1
8401,9.3
8404,29.7
8406,15.9
8409,21.4
8412,32.3
8416,13.5
8417,8.2
8419,15.7
8420,37.3
8422,35.1
8423,44.5
8424,35.1
8425,32.4
8427,18.5
8429,24.7
8438,-4.7
8443,4.3
8445,37.7
8448,4.2
8449,26.5
8450,25.0
8451,51.9
8452,32.7
8453,45.1
8455,41.1
8456,45.3
8457,51.8
8458,11.6
8461,19.7
8462,26.2
8464,24.3
8465,42.0
8468,24.1
8469,39.0
8473,33.9
8475,40.3
8476,44.0
8479,34.9
8480,46.0
8481,7.0
8482,18.5
8483,33.6
8484,21.0
8486,36.1
8487,40.4
8488,24.0
8489,47.3
8490,19.9
8491,34.2
8493,28.2
8494,32.9
8496,13.3
8497,35.8
8499,39.0
8503,27.8
8504,37.5
8505,16.0
8507,33.9
8511,4.2
8512,20.4
8513,27.5
8514,12.5
8515,50.6
8516,17.6
8519,-9.8
8522,17.4
8523,26.2
8525,4.6
8526,48.0
8527,7.1
8529,9.6
8530,49.3
8532,13.3
8535,34.4
8536,18.1
8537,4.5
8539,22.0
8541,51.5
8542,28.8
8543,7.7
8544,33.4
8545,21.7
8546,48.7
8547,28.7
8550,5.7
8553,31.3
8555,3.9
8556,33.9
8557,45.9
8558,24.5
8564,15.9
8566,24.3
8568,4.7
8571,46.1
8573,13.6
8576,10.8
8578,50.7
8579,42.2
8581,33.4
8583,19.9
8585,27.6
8587,15.2
8588,41.6
8590,50.8
8596,30.7
8597,16.7
8599,-12.4
8601,47.7
8602,51.5
8603,43.0
8607,23.2
8611,41.6
8612,44.8
8614,49.7
8617,42.7
8618,5.3
8620,12.9
8621,8.7
8622,18.0
8623,28.8
8626,12.9
8629,26.9
8630,35.1
8634,18.5
8635,45.4
8636,19.8
8637,49.2
8639,20.3
8640,37.3
8641,10.0
8642,47.5
8643,35.5
8646,8.2
8647,35.1
8649,13.7
8652,27.5
8653,50.1
8656,5.6
8657,40.7
8661,12.4
8663,3.9
8666,30.2
8667,31.3
8669,6.4
8670,30.0
8675,48.1
8676,35.1
8678,-7.2
8679,34.1
8682,51.8
8686,13.3
8689,49.3
8690,10.8
8691,6.5
8693,44.7
8696,38.8
8697,5.4
8700,28.8
8701,19.3
8702,38.9
8706,28.9
8710,31.2
8712,41.9
8713,31.3
8714,3.2
8716,25.3
8718,12.4
8719,16.6
8720,21.2
8723,25.5
8724,18.5
8725,14.7
8730,10.8
8731,8.1
8732,39.2
8734,30.6
8735,10.8
8741,29.2
8744,34.5
8745,48.1
8746,26.4
8747,41.6
8748,39.0
8750,48.2
8754,32.5
8757,23.2
8758,-12.4
8765,24.1
8766,18.8
8770,41.6
8772,49.4
8774,46.9
8776,5.8
8778,35.2
8782,28.8
8784,22.2
8785,29.6
8786,34.3
8788,49.1
8789,46.6
8790,6.9
8793,41.4
8794,21.0
8797,17.0
8798,15.7
8800,26.0
8802,37.0
8803,4.9
8805,5.6
8807,31.5
8808,42.9
8809,12.2
8810,26.3
8813,24.5
8814,3.3
8815,5.6
8817,51.8
8824,31.6
8825,28.8
8831,37.9
8833,8.3
8836,22.3
8837,-9.8
8838,35.2
8841,51.8
8842,50.6
8849,49.3
8852,40.5
8853,3.4
8855,9.6
8856,50.1
8857,33.7
8860,28.8
8862,50.5
8864,39.5
8866,30.8
8867,34.3
8870,21.2
8871,33.9
8872,43.0
8873,7.8
8875,46.5
8876,22.8
8880,24.6
8882,8.2
8883,21.0
8888,39.3
8889,51.5
8890,22.7
8892,49.6
8893,2.1
8894,10.8
8895,51.9
8898,39.3
8901,47.8
8903,15.9
8905,39.1
8906,42.6
8908,48.1
8909,8.7
8911,44.5
8914,8.4
8915,36.0
8917,50.9
8918,-9.8
8920,15.4
8922,31.4
8924,4.0
8928,47.0
8929,46.8
8931,12.4
8932,23.9
8935,23.2
8937,13.0
8939,23.0
8940,28.8
8941,19.9
8942,39.0
8943,6.7
8944,45.2
8948,32.7
8949,18.4
8951,28.8
8953,33.8
8954,15.8
8955,22.2
8956,15.7
8961,3.3
8962,10.2
8963,13.3
8965,14.3
8970,44.9
8971,5.1
8973,17.2
8974,5.6
8976,21.8
8977,20.0
8978,46.1
8979,9.0
8980,42.5
8982,42.7
8984,7.5
8985,26.2
8986,21.2
8990,26.5
8993,8.4
8994,12.9
8996,-7.2
9004,30.4
9005,41.1
9006,19.8
9008,49.3
9009,47.2
9012,21.1
9015,32.6
9019,28.8
9020,18.7
9023,31.1
9026,9.9
9027,11.1
9030,33.9
9041,18.5
9042,36.3
9043,20.8
9044,46.0
9053,42.6
9054,10.8
9055,16.9
9057,4.2
9058,12.8
9062,44.9
9065,36.5
9068,41.6
9069,42.7
9070,18.2
9073,50.6
9074,39.1
9076,-9.8
9079,18.7
9082,5.2
9083,38.1
9087,12.4
9088,49.3
9089,48.8
9091,50.4
9092,41.0
9094,48.3
9095,14.8
9096,29.5
9098,26.1
9099,28.8
9101,11.0
9103,47.5
9104,13.4
9105,2.0
9107,25.4
9108,14.1
9109,13.7
9110,14.6
9111,28.8
9116,20.1
9120,20.9
9121,38.9
9122,13.3
9125,6.2
9126,36.3
9127,16.6
9129,43.5
9130,9.4
9132,6.6
9133,15.0
9134,8.2
9137,41.1
9138,24.9
9139,27.9
9141,31.5
9143,17.8
9144,23.6
9154,5.2
9155,-7.2
9156,45.7
9160,2.4
9161,2.7
9162,18.1
9165,14.2
9166,49.3
9167,26.8
9170,23.8
9171,6.7
9172,11.7
9173,36.9
9174,42.2
9176,27.1
9177,5.0
9178,38.2
9179,26.2
9185,28.8
9186,50.3
9187,6.3
9190,33.9
9192,12.3
9195,6.2
9201,21.0
9203,6.6
9204,5.2
9206,13.4
9207,26.1
9208,22.6
9209,33.6
9210,49.3
9211,2.7
9212,13.3
9213,41.9
9214,5.9
9215,24.8
9222,4.3
9224,36.5
9228,35.6
9232,33.5
9233,18.0
9235,-9.8
9236,17.1
9242,18.5
9243,24.7
9245,4.6
9246,34.1
9247,49.3
9252,34.6
9253,2.1
9254,45.2
9256,43.1
9257,34.8
9259,31.3
9266,14.2
9267,42.4
9268,5.6
9269,49.1
9270,28.8
9272,11.0
9273,39.2
9275,2.6
9276,3.7
9277,11.2
9280,4.7
9281,15.9
9282,49.9
9283,23.6
9285,18.8
9286,34.4
9289,49.1
9292,8.2
9293,47.5
9297,2.9
9300,18.3
9301,43.5
9303,18.5
9304,10.4
9306,39.0
9307,6.8
9313,41.4
9315,-7.2
9318,3.4
9319,22.4
9320,3.8
9321,17.8
9323,14.8
9324,38.9
9325,30.3
9326,51.9
9327,3.0
9328,51.2
9333,22.1
9337,26.2
9340,46.6
9341,12.3
9342,39.0
9343,9.0
9345,8.8
9348,8.8
9349,33.9
9353,3.9
9354,51.6
9355,13.6
9357,50.9
9360,21.0
9361,8.5
9362,35.2
9364,4.4
9366,20.9
9367,34.8
9368,6.8
9370,35.2
9371,13.3
9376,32.7
9377,4.3
9378,5.8
9383,33.9
9384,39.9
9386,14.8
9388,17.3
9389,13.2
9391,7.1
9395,-9.8
9397,13.4
9399,10.7
9400,11.1
9401,20.9
9402,50.6
9404,41.8
9406,49.3
9409,9.9
9410,38.6
9413,14.7
9416,43.6
9417,28.8
9419,22.6
9420,16.2
9421,8.3
9423,17.2
9424,27.0
9425,16.9
9426,42.2
9428,31.3
9435,32.5
9437,23.4
9438,2.2
9440,15.9
9443,15.2
9444,27.6
9445,23.5
9447,15.4
9448,39.3
9450,38.5
9452,8.2
9454,31.2
9455,19.8
9457,23.9
9461,24.7
9462,15.9
9464,35.5
9470,33.3
9472,45.3
9474,-4.7
9475,14.1
9479,35.1
9480,29.5
9483,33.3
9484,10.9
9485,51.9
9488,25.6
9489,13.6
9491,22.2
9493,40.7
9495,18.7
9496,26.2
9497,10.9
9498,21.2
9499,50.0
9500,20.5
9502,18.6
9504,44.4
9505,15.4
9507,33.9
9508,40.2
9517,21.5
9518,9.9
9519,41.4
9520,21.0
9521,45.6
9523,27.5
9526,33.0
9527,22.8
9528,17.0
9530,15.3
9531,13.3
9532,41.1
9533,20.5
9534,14.5
9538,44.4
9541,36.9
9542,31.3
9543,10.0
9545,45.9
9546,40.9
9550,49.4
9552,48.2
9553,-9.8
9554,21.7
9556,38.0
9557,35.3
9558,18.9
9563,30.1
9565,49.3
9567,36.9
9570,37.0
9572,22.4
9573,40.1
9574,46.0
9575,30.8
9576,46.4
9577,28.8
9580,39.4
9584,9.7
9585,12.1
9587,47.5
9588,31.3
9592,39.7
9593,21.4
9597,48.2
9600,18.5
9601,9.5
9602,7.2
9603,25.7
9604,9.8
9607,24.9
9611,10.8
9612,34.2
9613,48.7
9614,49.5
9615,39.2
9616,29.4
9618,13.2
9620,15.6
9621,49.0
9622,41.6
9626,16.3
9629,29.4
9633,-12.4
9635,27.0
9637,23.5
9641,35.4
9643,3.3
9644,41.2
9645,21.7
9647,41.6
9650,28.9
9655,16.8
9658,26.2
9659,25.5
9663,33.9
9664,32.8
9667,39.6
9668,39.9
9669,21.0
9670,41.4
9671,5.9
9673,6.8
9677,45.0
9678,35.7
9680,8.2
9683,27.0
9684,7.1
9685,46.8
9686,27.8
9688,11.8
9691,5.6
9693,25.1
9695,3.5
9700,3.2
9701,28.8
9702,42.3
9705,25.7
9707,21.0
9708,25.6
9710,10.3
9711,43.5
9713,-7.2
9715,2.2
9717,6.8
9718,28.8
9724,51.9
9727,23.2
9729,26.1
9736,28.8
9737,29.7
9738,37.6
9739,29.8
9743,9.0
9745,38.6
9747,33.9
9752,30.7
9755,7.9
9756,51.0
9758,18.5
9763,51.0
9764,21.9
9767,11.8
9768,40.4
9769,10.8
9770,41.1
9771,24.1
9772,11.2
9773,34.1
9774,43.9
9775,39.4
9776,51.6
9777,33.6
9779,21.4
9782,39.1
9785,37.1
9786,19.2
9787,22.3
9792,47.9
9793,-9.8
9794,11.6
9799,7.4
9801,8.9
9802,48.5
9803,45.0
9804,49.3
9805,31.4
9806,47.0
9807,2.6
9808,21.8
9811,30.6
9814,27.3
9816,31.3
9820,35.2
9822,51.7
9823,7.5
9824,34.1
9825,37.1
9827,28.8
9828,21.2
9829,16.6
9830,25.0
9831,33.0
9837,24.6
9838,15.9
9840,35.6
9848,22.6
9850,5.6
9852,46.5
9854,13.2
9855,18.4
9856,32.0
9857,3.6
9859,49.8
9861,26.2
9862,7.4
9863,19.5
9865,40.7
9867,3.4
9869,22.1
9872,-7.2
9874,37.9
9875,30.4
9877,15.6
9879,31.3
9880,40.1
9881,6.1
9882,13.3
9883,49.3
9884,15.6
9885,15.6
9886,25.8
9887,35.3
9889,43.7
9891,34.8
9894,28.8
9896,12.3
9898,36.3
9899,28.7
9900,7.0
9902,4.3
9903,30.2
9904,41.9
9905,15.3
9906,31.3
9908,38.4
9911,49.8
9913,45.2
9914,26.7
9916,12.8
9918,21.0
9920,5.7
9921,14.6
9922,29.2
9927,7.2
9928,2.5
9929,13.3
9930,16.1
9933,34.7
9934,31.5
9936,34.9
9940,36.5
9941,40.6
9942,4.4
9943,17.6
9945,46.9
9947,10.1
9949,47.6
9952,-7.2
9953,9.5
9954,30.1
9955,46.1
9957,44.7
9960,48.3
9963,49.3
9964,22.2
9965,29.2
9966,3.6
9967,50.2
9972,45.8
9973,32.1
9974,28.8
9975,14.3
9977,9.2
9978,49.7
9980,40.5
9981,14.9
9987,31.3
9988,46.8
9990,48.7
9993,17.1
9997,15.1
9998,15.9
9999,9.8
10000,5.0
10003,18.0
10005,5.7
10006,5.1
10008,25.9
10009,5.6
10010,51.2
10014,6.8
10018,43.9
10020,44.2
10022,48.4
10023,7.0
10025,48.0
10028,21.1
10029,6.0
10030,41.4
10032,6.9
10033,15.9
10034,37.1
10035,6.3
10036,26.8
10039,12.2
10045,8.8
10046,33.9
10047,37.3
10048,31.1
10049,17.5
10053,44.4
10054,2.8
10055,8.8
10057,47.3
10058,10.8
10060,35.5
10061,2.2
10064,50.5
10065,28.0
10066,42.2
10067,6.4
10068,6.6
10069,8.6
10070,28.7
10071,-4.7
10074,44.6
10075,17.0
10076,8.8
10077,26.2
10078,36.9
10080,40.6
10081,32.4
10082,50.5
10083,49.3
10088,25.8
10089,27.5
10091,26.5
10092,16.7
10095,28.8
10096,23.4
10098,32.3
10099,13.9
10101,41.4
10104,6.0
10105,47.9
10106,27.0
10107,13.3
10110,32.7
10111,7.6
10112,51.3
10113,8.1
10119,30.9
10121,46.8
10122,16.3
10124,14.5
10126,9.6
10129,19.4
10130,45.8
10132,5.8
10133,21.0
10134,13.9
10137,48.0
10139,12.9
10140,4.6
10141,31.8
10142,23.7
10143,35.1
10144,21.4
10145,28.8
10151,22.3
10158,10.8
10168,14.7
10169,19.2
10170,-7.2
10171,10.4
10172,18.2
10175,39.9
10176,26.8
10177,17.6
10178,5.8
10179,8.9
10180,20.2
10181,26.3
10183,46.8
10184,42.4
10185,48.7
10187,25.3
10188,29.1
10189,37.2
10191,15.8
10193,28.3
10195,28.8
10197,47.5
10198,23.3
10199,32.2
10200,27.3
10202,51.1
10203,31.9
10204,51.1
10206,3.5
10207,7.3
10208,10.8
10211,51.5
10213,37.0
10214,19.0
10218,24.6
10219,49.0
10220,49.3
10226,47.9
10228,12.4
10229,20.2
10232,26.2
10233,27.2
10234,46.3
10235,44.6
10237,11.2
10239,33.9
10244,6.3
10245,9.8
10246,26.2
10247,22.2
10248,40.0
10249,20.1
10251,20.3
10254,14.9
10255,45.7
10258,8.2
10261,25.8
10265,35.2
10266,6.2
10267,45.0
10268,34.7
10269,-2.1
10271,15.7
10272,43.9
10273,2.3
10276,42.9
10277,27.5
10278,49.8
10281,51.9
10284,23.0
10285,11.0
10286,4.0
10288,37.0
10289,24.3
10290,42.4
10294,26.2
10296,45.8
10299,2.2
10300,33.9
10302,42.6
10305,22.5
10306,15.9
10308,32.0
10309,35.6
10310,51.4
10311,42.2
10312,7.0
10314,8.8
10317,9.0
10319,44.2
10320,25.6
10323,10.4
10327,27.1
10328,7.6
10330,19.6
10331,41.6
10332,13.3
10335,10.1
10338,13.5
10339,29.6
10340,11.0
10341,29.8
10344,33.9
10345,16.2
10349,28.8
10350,25.6
10354,45.3
10355,28.3
10356,13.3
10358,19.9
10362,32.3
10364,31.8
10367,3.6
10369,-4.7
10370,15.6
10371,4.0
10375,39.6
10376,15.4
10378,32.3
10381,7.8
10382,49.3
10384,20.7
10385,41.1
10389,37.2
10390,48.8
10392,19.4
10393,3.5
10394,28.8
10396,44.6
10400,40.7
10401,11.7
10406,13.3
10408,50.4
10409,49.2
10410,48.4
10411,10.2
10412,34.2
10414,31.6
10415,48.2
10419,46.8
10424,2.4
10425,48.5
10429,16.5
10431,21.0
10432,34.0
10433,48.8
10435,20.0
10436,26.5
10439,51.0
10440,31.9
10441,25.2
10444,31.3
10447,14.0
10449,8.4
10452,29.0
10457,10.8
10460,44.6
10463,3.2
10465,17.0
10468,33.1
10469,-7.2
10473,47.5
10474,37.6
10476,18.5
10477,17.1
10478,32.7
10480,45.6
10481,46.8
10482,8.3
10484,40.1
10486,40.0
10487,6.8
10490,34.8
10493,26.2
10494,16.4
10495,29.8
10497,42.0
10498,16.4
10501,46.2
10502,8.4
10503,3.8
10506,13.3
10507,6.3
10509,27.5
10511,29.8
10513,32.5
10514,3.1
10515,13.1
10516,19.2
10517,51.1
10519,49.3
10522,30.0
10525,37.5
10530,3.2
10531,23.6
10532,51.8
10534,25.2
10538,31.3
10539,7.8
10541,9.3
10542,13.1
10544,28.8
10545,35.0
10546,38.3
10547,37.9
10549,14.5
10550,47.9
10551,14.0
10553,38.0
10556,8.2
10559,31.8
10561,2.7
10567,-2.1
10569,42.7
10571,29.6
10572,49.9
10574,47.7
10577,41.2
10580,51.9
10585,31.6
10588,17.3
10590,40.4
10593,28.8
10594,29.2
10596,15.9
10598,30.8
10599,38.8
10603,43.7
10604,32.1
10605,15.9
10606,23.5
10607,33.9
10608,36.5
10609,20.0
10611,9.7
10613,32.4
10615,29.2
10617,44.2
10619,2.7
10620,5.3
10622,4.4
10623,18.6
10624,25.0
10627,13.7
10628,39.8
10629,20.6
10630,13.3
10632,46.7
10633,6.1
10634,17.9
10636,24.2
10637,6.7
10641,13.1
10642,35.2
10643,33.9
10646,5.5
10647,31.4
10648,29.6
10650,9.0
10651,13.0
10652,3.0
10653,16.0
10655,13.3
10657,25.9
10659,21.9
10660,32.7
10662,34.0
10664,44.4
10668,-2.1
10669,16.8
10670,17.1
10672,40.7
10673,26.9
10674,47.5
10675,18.2
10676,45.8
10678,2.5
10680,49.3
10682,16.1
10690,11.2
10692,28.8
10693,39.2
10694,47.0
10695,10.7
10696,17.1
10697,2.2
10701,3.6
10704,13.3
10711,6.0
10712,37.5
10714,17.4
10715,38.0
10716,19.1
10717,49.1
10718,46.8
10719,21.9
10720,7.4
10721,28.7
10723,17.8
10725,16.1
10728,49.8
10730,18.5
10732,48.4
10734,21.2
10735,43.7
10736,30.2
10737,20.9
10738,10.1
10739,10.2
10740,24.6
10741,14.0
10742,31.3
10743,40.1
10744,13.1
10745,9.2
10749,41.7
10753,35.8
10755,10.8
10756,16.6
10758,11.1
10760,13.1
10761,6.1
10762,34.0
10766,48.1
10767,-4.7
10770,9.0
10772,21.3
10776,4.3
10780,46.8
10782,3.0
10785,43.4
10786,32.3
10787,21.6
10789,47.2
10792,26.2
10796,36.5
10797,32.0
10798,24.1
10799,7.0
10801,16.8
10805,10.8
10806,9.8
10808,8.9
10809,8.6
10810,17.1
10816,22.4
10817,49.3
10818,29.1
10819,40.5
10820,47.3
10822,20.0
10824,14.0
10826,10.8
10827,22.3
10828,32.2
10829,23.6
10833,25.7
10834,51.5
10835,2.2
10836,13.1
10837,8.3
10840,19.7
10841,3.7
10843,28.8
10846,12.8
10848,44.0
10851,31.3
10853,27.0
10855,8.2
10856,17.1
10859,41.0
10860,43.1
10861,2.4
10865,9.6
10866,0.5
10867,22.9
10868,35.6
10871,4.4
10873,30.8
10874,34.1
10876,12.6
10877,51.9
10883,32.9
10888,26.5
10890,26.2
10891,26.4
10892,32.2
10893,2.1
10895,34.3
10902,23.6
10903,11.2
10905,31.1
10907,19.1
10910,7.0
10911,9.3
10913,44.1
10914,20.8
10915,15.9
10916,37.9
10919,16.0
10920,26.6
10924,27.7
10927,20.4
10928,-12.4
10932,50.5
10936,17.5
10938,38.4
10941,33.9
10943,31.0
10946,33.1
10949,46.9
10953,10.8
10954,13.3
10960,16.3
10961,41.0
10962,38.3
10963,50.9
10964,8.8
10965,13.7
10966,-2.1
10967,50.1
10970,34.5
10978,25.4
10979,49.3
10980,47.8
10981,28.7
10983,5.8
10984,18.6
10985,16.5
10986,38.7
10987,43.9
10988,24.2
10991,28.8
10992,41.1
10993,7.9
10994,16.8
10995,39.8
10997,11.8
11002,32.7
11003,13.3
11006,47.6
11008,48.0
11009,35.5
11010,50.7
11012,23.4
11013,23.0
11015,23.4
11016,46.8
11017,4.9
11019,10.8
11020,25.5
11024,46.8
11027,22.9
11028,18.5
11030,8.3
11033,41.2
11037,10.0
11040,6.3
11041,31.3
11042,37.0
11048,18.1
11054,10.8
11055,29.4
11056,22.3
11057,5.7
11058,38.1
11059,5.0
11060,8.6
11061,5.5
11066,-4.7
11068,7.7
11071,25.9
11072,29.4
11075,48.4
11077,3.2
11078,49.3
11080,33.5
11081,25.9
11083,23.4
11087,18.8
11088,8.8
11089,11.9
11090,28.8
11092,26.3
11094,29.0
11096,31.3
11097,5.6
11098,8.9
11103,13.3
11104,42.9
11105,27.8
11109,16.2
11111,27.6
11114,22.7
11116,49.3
11117,47.6
11118,6.2
11120,16.3
11124,9.6
11125,17.6
11128,23.6
11129,3.1
11130,3.4
11132,39.3
11133,24.7
11134,18.8
11135,47.4
11138,30.5
11141,31.3
11145,28.9
11148,47.4
11149,9.4
11150,14.2
11151,36.9
11153,8.2
11154,12.4
11158,15.0
11162,19.2
11164,0.5
11165,34.9
11167,27.1
11169,21.0
11175,32.6
11176,51.9
11177,8.3
11178,25.9
11181,50.2
11183,37.7
11184,7.2
11187,35.0
11189,26.2
11190,12.1
11191,36.2
11192,22.6
11194,30.5
11195,46.1
11199,19.0
11200,12.5
11201,26.2
11202,28.2
11203,4.1
11209,6.9
11210,15.7
11211,45.5
11212,42.7
11213,13.3
11214,42.2
11215,10.2
11216,23.4
11220,16.6
11224,23.6
11226,-12.4
11228,45.3
11232,45.8
11237,45.6
11239,33.9
11242,20.4
11243,42.3
11248,26.4
11252,13.3
11253,51.7
11254,17.8
11258,19.3
11259,50.1
11261,47.5
11263,26.5
11265,-2.1
11268,43.7
11271,35.6
11272,17.7
11276,39.6
11277,49.3
11278,32.7
11280,50.9
11284,15.0
11285,24.1
11286,16.7
11287,23.3
11288,10.2
11289,28.8
11290,42.7
11291,30.9
11292,37.4
11294,43.5
11295,3.1
11298,22.3
11299,8.9
11300,2.3
11301,15.9
11306,22.7
11311,8.5
11313,30.4
11315,46.8
11317,18.3
11318,28.7
11319,18.7
11320,7.5
11321,42.9
11322,4.7
11323,23.1
11325,8.3
11326,24.4
11327,18.5
11328,22.9
11330,26.6
11334,31.9
11335,13.6
11336,18.0
11339,31.3
11340,3.1
11341,24.0
11345,40.9
11350,14.9
11352,13.3
11353,45.9
11356,45.3
11358,5.6
11361,30.8
11364,-4.7
11366,17.1
11368,45.4
11370,34.8
11374,47.1
11375,11.3
11377,49.3
11378,41.4
11379,16.6
11382,26.7
11383,29.5
11384,44.9
11385,48.7
11386,37.0
11388,38.5
11389,28.8
11390,2.3
11391,47.5
11394,50.6
11402,10.8
11405,38.2
11406,25.2
11414,49.3
11416,45.9
11417,20.7
11418,45.2
11420,16.6
11424,34.8
11426,23.6
11429,24.9
11432,12.2
11435,34.5
11437,28.5
11438,6.7
11439,28.8
11442,24.6
11445,36.0
11446,49.3
11447,51.3
11448,9.2
11449,14.2
11452,8.2
11453,24.2
11454,38.6
11456,9.8
11457,4.8
11458,30.4
11459,37.2
11460,17.8
11462,37.9
11463,0.5
11465,21.7
11466,22.0
11467,38.5
11469,2.6
11474,51.9
11479,11.9
11481,33.5
11484,35.5
11485,44.4
11487,28.8
11489,41.2
11492,42.4
11493,23.3
11495,2.2
11497,5.4
11498,8.9
11499,23.6
11504,41.7
11505,9.6
11507,43.1
11512,10.8
11515,44.1
11516,46.6
11521,38.0
11522,27.9
11523,27.2
11524,15.4
11525,-9.8
11526,21.4
11528,14.7
11530,50.2
11532,29.2
11533,12.2
11535,39.6
11537,41.6
11538,23.1
11542,24.6
11544,30.8
11545,3.1
11547,41.5
11549,21.0
11554,10.3
11556,50.9
11558,29.0
11561,8.2
11562,22.3
11564,38.2
11568,33.9
11570,36.9
11571,21.1
11572,44.6
11573,34.0
11574,46.8
11575,14.7
11580,47.9
11583,46.5
11584,45.8
11585,32.0
11586,21.0
11591,3.2
11592,51.3
11594,47.9
11595,16.0
11597,37.8
11598,31.3
11601,4.6
11603,45.4
11604,9.3
11605,33.1
11606,40.2
11607,6.7
11610,30.2
11611,10.8
11616,12.8
11617,4.5
11618,34.7
11622,46.5
11623,-7.2
11633,2.0
11635,49.3
11636,7.4
11638,18.6
11639,21.6
11640,25.8
11644,41.4
11645,28.5
11646,36.5
11647,37.4
11649,26.2
11650,5.0
11652,45.9
11654,12.8
11656,28.2
11659,27.5
11661,10.8
11666,33.9
11668,38.4
11670,3.8
11673,51.9
11674,14.8
11675,5.4
11678,16.1
11680,15.6
11683,5.2
11685,26.2
11687,22.3
11690,46.7
11691,19.0
11694,36.4
11696,43.7
11698,28.8
11699,11.5
11700,33.7
11701,7.2
11702,27.8
11704,12.9
11705,17.5
11708,18.0
11710,27.3
11711,8.2
11712,11.9
11713,33.2
11714,2.6
11715,48.1
11716,27.8
11719,17.9
11721,16.1
11722,-2.1
11728,7.5
11729,44.0
11735,51.9
11737,24.5
11738,15.1
11739,6.6
11740,48.4
11741,3.9
11742,46.4
11743,41.5
11744,34.9
11746,22.2
11747,28.8
11748,32.3
11749,36.7
11756,34.3
11757,12.2
11758,37.1
11759,18.5
11764,23.8
11765,7.3
11768,27.8
11771,41.6
11774,21.5
11775,51.0
11776,27.9
11778,23.1
11783,6.3
11785,13.3
11790,30.6
11792,43.3
11793,21.3
11797,33.9
11798,19.8
11799,38.8
11801,28.1
11802,35.2
11803,10.0
11804,5.3
11807,45.5
11809,10.8
11810,38.0
11811,45.2
11812,18.6
11814,51.0
11816,12.4
11817,11.5
11819,19.8
11820,29.0
11821,31.4
11822,-2.1
11825,23.1
11828,24.0
11829,9.5
11834,49.3
11835,20.5
11836,20.2
11837,14.0
11840,14.4
11842,34.8
11845,40.5
11847,28.8
11849,27.5
11850,16.1
11853,21.4
11854,35.0
11856,6.7
11859,13.3
11860,47.3
11861,37.0
11862,18.8
11865,4.2
11866,36.1
11868,29.0
11869,15.4
11870,23.3
11871,29.4
11872,46.8
11876,32.2
11877,12.4
11880,42.7
11882,40.8
11883,2.3
11884,21.0
11886,41.4
11887,19.0
11889,9.9
11890,43.3
11891,10.9
11896,31.3
11899,39.7
11900,23.5
11903,30.0
11904,34.4
11905,14.8
11907,5.5
11908,20.5
11910,10.8
11920,38.9
11921,5.1
11922,-7.2
11923,18.0
11927,45.7
11929,20.5
11930,17.0
11931,7.3
11934,46.8
11935,13.9
11940,42.2
11941,25.4
11942,11.5
11944,47.8
11946,28.8
11947,26.2
11955,30.2
11957,25.6
11958,46.3
11959,10.8
11961,44.1
11966,33.9
11967,40.3
11971,49.3
11972,13.2
11973,45.3
11978,44.2
11979,49.5
11980,41.7
11984,23.6
11986,25.5
11987,48.0
11988,49.5
11989,7.8
11991,45.9
11994,27.1
11995,9.0
11996,8.4
11997,28.8
11998,38.6
12000,34.6
12002,48.1
12004,11.9
12005,41.0
12006,5.1
12007,24.1
12009,8.2
12011,6.1
12014,5.7
12016,43.4
12019,37.8
12020,0.5
12022,15.9
12023,11.7
12025,35.8
12026,26.4
12027,46.4
12030,50.2
12031,19.4
12032,51.9
12033,34.9
12035,44.4
12036,36.6
12038,24.4
12040,25.5
12041,39.9
12045,28.8
12046,43.7
12047,41.2
12048,47.2
12053,48.7
12054,35.9
12055,31.1
12056,25.7
12057,26.2
12058,20.8
12059,37.5
12060,23.7
12061,40.6
12067,22.1
12069,18.5
12070,24.8
12071,16.8
12075,32.4
12079,38.2
12082,-9.8
12083,20.9
12084,44.7
12085,11.7
12087,40.9
12089,2.8
12090,32.7
12091,20.3
12092,10.1
12094,39.1
12097,43.2
12099,16.1
12100,8.9
12102,35.7
12103,36.1
12104,20.2
12107,21.0
12108,41.0
12112,33.2
12113,49.9
12114,11.1
12118,43.9
12120,3.0
12121,31.0
12125,40.0
12127,14.2
12129,33.2
12130,2.7
12131,51.9
12133,3.1
12136,36.7
12143,23.6
12144,25.9
12146,14.2
12149,4.5
12151,7.7
12152,26.6
12155,28.8
12156,34.0
12159,7.7
12161,47.4
12162,18.4
12165,39.3
12168,8.2
12170,6.8
12171,5.5
12173,37.4
12176,47.5
12180,0.5
12182,23.0
12183,3.5
12187,3.6
12188,22.1
12191,51.9
12196,30.0
12198,37.9
12200,35.5
12202,44.2
12204,28.8
12206,47.5
12207,31.9
12209,45.2
12212,47.9
12213,12.2
12216,23.6
12218,17.9
12219,27.4
12226,37.7
12227,19.9
12228,15.9
12232,46.7
12235,32.0
12240,7.4
12241,-12.4
12242,30.5
12243,25.6
12247,6.6
12248,14.6
12249,14.1
12251,46.8
12252,27.3
12254,22.7
12255,36.5
12258,33.7
12259,44.7
12260,35.9
12261,14.0
12263,9.8
12267,13.3
12268,45.8
12270,6.6
12272,51.7
12273,26.7
12275,8.9
12277,34.9
12278,23.2
12279,-2.1
12281,9.3
12282,27.9
12285,17.5
12291,28.9
12292,49.3
12297,15.2
12299,46.4
12303,47.1
12304,28.8
12307,51.4
12308,26.9
12309,8.4
12314,2.1
12315,42.5
12316,36.5
12317,15.9
12320,38.7
12322,34.9
12327,3.0
12329,46.8
12333,21.6
12334,4.5
12338,17.2
12341,39.3
12342,18.5
12344,41.5
12345,18.0
12346,31.5
12348,30.0
12349,18.9
12350,12.4
12351,9.2
12353,45.9
12354,33.9
12360,22.0
12364,34.6
12365,38.5
12366,13.3
12370,46.0
12371,36.8
12375,11.9
12376,13.7
12378,46.9
12379,44.3
12380,-4.7
12385,47.5
12388,21.1
12389,37.6
12390,43.6
12392,49.3
12395,12.0
12396,2.6
12398,47.4
12399,4.8
12400,3.9
12401,4.6
12402,43.0
12404,26.2
12408,31.4
12415,5.3
12416,24.2
12417,13.3
12419,7.7
12423,2.2
12424,49.0
12425,44.7
12427,28.6
12429,49.3
12430,4.2
12436,28.3
12438,51.1
12442,23.6
12445,13.5
12446,37.0
12449,15.9
12451,18.8
12452,46.0
12453,32.0
12454,28.8
12456,11.0
12458,36.1
12461,33.1
12464,13.5
12466,48.2
12467,10.8
12468,37.3
12469,33.7
12470,22.9
12471,6.4
12473,40.5
12476,21.7
12478,28.7
12479,-7.2
12481,34.1
12483,27.6
12485,42.5
12487,9.0
12488,8.9
12490,33.8
12491,46.8
12493,28.0
12494,19.4
12497,51.2
12500,40.1
12501,17.2
12503,24.9
12504,26.2
12506,36.9
12508,14.8
12510,24.9
12513,2.2
12517,10.8
12518,19.4
12519,37.9
12521,5.7
12523,43.4
12526,51.9
12527,3.8
12528,19.4
12529,49.3
12535,29.4
12538,12.6
12541,26.2
12542,41.0
12543,14.2
12545,45.1
12547,23.6
12549,48.5
12550,32.2
12551,32.9
12553,16.5
12554,28.8
12555,9.0
12560,29.9
12561,51.4
12562,39.3
12566,5.6
12567,9.0
12568,23.1
12571,13.6
12572,51.9
12573,38.7
12575,19.8
12576,3.4
12577,38.4
12578,-2.1
12580,22.3
12581,26.3
12582,25.9
12583,45.3
12584,27.5
12585,25.9
12588,45.5
12589,8.3
12590,28.5
12591,49.3
12592,42.5
12594,12.8
12598,48.3
12599,23.6
12600,28.3
12602,35.2
12603,31.3
12610,19.9
12611,6.4
12612,34.7
12613,46.0
12614,41.1
12615,15.9
12620,10.1
12621,48.2
12624,10.6
12626,9.9
12627,46.8
12630,23.3
12631,23.7
12633,27.7
12635,36.6
12637,2.6
12639,37.0
12641,15.9
12642,11.7
12645,34.2
12651,6.3
12652,21.8
12653,31.3
12654,42.9
12655,10.5
12656,29.5
12658,34.0
12660,35.8
12664,37.7
12665,10.8
12667,50.4
12669,2.0
12674,16.6
12676,31.2
12678,-4.7
12682,42.4
12684,30.3
12689,7.3
12690,49.3
12691,18.2
12692,33.1
12697,26.0
12698,9.6
12702,26.2
12705,18.1
12707,32.2
12708,26.8
12710,16.8
12712,29.5
12713,11.4
12716,13.3
12719,29.9
12720,50.0
12721,28.6
12722,17.9
12724,48.2
12725,47.9
12726,49.1
12727,16.5
12728,49.3
12731,40.7
12732,7.5
12733,49.4
12734,21.4
12740,21.0
12741,26.1
12743,31.1
12746,30.6
12747,49.7
12748,9.0
12749,49.9
12750,45.1
12751,45.4
12752,31.3
12753,19.5
12754,6.6
12758,28.6
12759,6.0
12761,7.7
12762,50.8
12765,10.8
12768,28.3
12769,4.0
12772,45.7
12775,20.1
12778,-7.2
12780,4.2
12781,37.9
12782,11.2
12783,15.5
12784,37.2
12787,11.0
12788,49.4
12789,30.1
12790,46.8
12793,46.4
12794,19.5
12796,25.2
12797,4.5
12798,13.6
12799,2.8
12803,26.2
12806,9.1
12809,11.8
12810,8.2
12811,38.6
12815,10.8
12818,9.5
12820,33.7
12821,5.2
12822,27.4
12823,43.8
12826,3.8
12827,51.9
12828,15.8
12829,30.6
12833,50.5
12834,22.1
12835,34.2
12836,19.2
12839,51.8
12840,26.2
12841,10.1
12844,44.5
12845,22.4
12846,12.5
12848,8.0
12850,30.0
12852,21.2
12853,28.8
12854,46.3
12855,2.7
12857,49.6
12858,33.9
12859,3.0
12860,8.8
12861,15.1
12862,10.6
12863,21.2
12865,8.2
12867,37.5
12870,8.9
12873,37.1
12875,30.7
12876,-2.1
12879,20.2
12881,25.5
12884,41.6
12885,33.8
12886,51.7
12887,36.9
12889,51.9
12890,18.3
12891,46.2
12896,36.5
12899,42.3
12900,40.1
12901,28.8
12902,17.3
12905,49.3
12912,50.1
12914,15.9
12915,20.4
12916,22.4
12917,40.8
12918,26.8
12919,4.5
12922,21.0
12923,47.2
12924,41.4
12925,20.1
12926,46.8
12927,17.2
12928,49.0
12930,12.9
12931,18.5
12933,5.3
12935,21.0
12939,13.3
12948,23.5
12949,29.4
12950,28.8
12951,33.9
12954,43.1
12956,19.7
12957,45.7
12958,11.9
12959,39.4
12960,15.4
12962,11.9
12963,13.3
12964,16.8
12967,39.1
12968,13.4
12971,49.0
12972,19.7
12973,29.4
12974,23.4
12975,10.0
12977,-2.1
12978,22.8
12979,26.7
12981,23.7
12983,21.6
12985,17.0
12988,17.7
12989,49.3
12991,9.7
12992,45.0
12996,42.6
13001,28.8
13004,25.6
13005,28.2
13009,2.2
13011,27.4
13014,13.3
13016,32.4
13019,14.2
13021,40.7
13026,49.3
13028,34.5
13029,40.6
13031,32.5
13035,12.9
13037,43.5
13038,14.6
13039,21.0
13044,14.2
13045,50.8
13046,23.5
13048,31.9
13050,18.9
13051,31.3
13054,28.8
13056,19.8
13058,40.2
13059,41.5
13061,18.0
13062,5.0
13064,10.8
13065,51.7
13066,3.6
13071,10.7
13072,15.5
13076,-7.2
13079,25.2
13084,38.6
13085,2.4
13086,24.9
13088,46.8
13089,16.0
13091,47.9
13093,39.9
13097,39.9
13100,30.4
13101,26.2
13102,36.8
13103,24.3
13104,47.7
13109,26.5
13112,9.1
13114,10.8
13116,50.6
13117,17.7
13118,33.7
13120,48.1
13121,35.3
13122,50.5
13125,2.2
13126,49.3
13128,30.1
13129,3.4
13132,23.1
13135,18.8
13138,26.2
13139,51.6
13141,7.5
13144,3.9
13146,8.6
13148,36.9
13149,2.2
13150,51.6
13151,28.8
13152,3.2
13155,11.2
13157,30.1
13162,17.6
13163,5.6
13167,19.2
13170,46.2
13171,9.0
13173,25.2
13175,0.5
13177,15.2
13180,36.2
13183,35.6
13187,51.9
13194,13.6
13197,13.2
13199,28.8
13207,26.6
13208,44.9
13209,39.9
13211,23.6
13212,11.4
13214,41.9
13215,38.2
13216,7.0
13219,9.1
13220,34.8
13221,30.8
13223,21.0
13226,15.7
13227,45.4
13229,22.1
13233,11.2
13234,25.0
13236,15.2
13237,-15.0
13239,29.6
13242,44.0
13246,21.0
13247,11.2
13248,35.4
13249,7.6
13250,33.9
13252,4.6
13256,20.2
13258,13.2
13260,11.6
13262,13.3
13263,37.7
13267,19.5
13269,16.6
13270,49.7
13271,15.0
13273,39.8
13274,50.8
13275,-4.7
13276,41.9
13279,43.2
13280,33.3
13282,31.2
13283,18.2
13284,5.9
13285,35.3
13287,49.3
13289,48.2
13293,19.2
13294,19.9
13295,39.8
13296,13.0
13297,24.7
13299,28.8
13306,3.6
13309,40.2
13312,8.8
13313,15.9
13321,11.3
13322,44.3
13323,22.8
13325,46.8
13326,12.0
13328,24.1
13330,21.3
13332,51.9
13334,9.0
13336,6.3
13337,21.0
13338,17.9
13340,25.8
13341,50.2
13344,38.0
13346,40.1
13349,31.3
13353,39.4
13354,40.1
13359,14.9
13360,7.1
13361,39.7
13362,10.8
13363,3.4
13369,14.9
13370,7.9
13372,50.8
13375,-4.7
13376,34.8
13381,21.6
13384,2.7
13386,33.1
13387,49.3
13389,5.0
13392,30.6
13397,6.2
13398,43.6
13399,14.0
13400,26.2
13401,41.5
13402,13.7
13403,32.9
13405,18.8
13408,5.7
13411,39.2
13412,13.3
13413,49.1
13414,17.5
13415,3.6
13416,18.5
13417,32.8
13420,31.5
13422,9.1
13423,43.0
13424,49.3
13425,47.7
13427,37.2
13428,22.9
13432,13.4
13433,42.2
13436,49.4
13437,23.6
13438,49.6
13441,12.8
13443,41.1
13450,28.8
13452,43.4
13454,28.6
13456,29.8
13457,49.9
13462,8.2
13464,17.4
13468,19.2
13469,48.8
13471,34.9
13473,-2.1
13477,34.5
13478,4.9
13479,20.5
13481,42.8
13482,22.0
13483,20.3
13485,45.0
13486,51.9
13490,9.2
13495,10.8
13496,38.1
13497,7.4
13498,28.8
13499,14.8
13500,25.6
13501,40.4
13506,24.1
13507,25.3
13511,18.5
13513,32.3
13515,5.2
13517,37.9
13518,16.6
13523,44.2
13525,3.2
13526,16.3
13527,14.9
13531,46.8
13532,28.1
13534,37.4
13535,34.3
13536,13.3
13538,14.4
13542,46.1
13547,20.6
13548,33.9
13549,47.8
13555,6.2
13557,3.9
13559,34.7
13560,13.3
13562,9.8
13563,51.1
13564,26.2
13566,7.9
13567,34.1
13570,18.0
13573,22.4
13574,-2.1
13576,36.2
13577,7.7
13579,35.7
13586,49.3
13593,25.4
13596,8.3
13597,47.2
13598,28.8
13599,50.0
13601,42.4
13604,47.5
13605,12.7
13607,10.1
13611,15.9
13612,7.6
13613,23.4
13617,36.3
13618,6.2
13623,46.8
13625,4.7
13628,27.2
13629,13.4
13630,32.9
13631,9.8
13633,31.7
13634,14.3
13635,21.0
13637,30.4
13638,5.8
13640,18.1
13641,12.9
13642,25.0
13644,40.9
13645,7.7
13648,33.9
13649,3.3
13650,8.8
13653,27.7
13654,24.6
13655,2.0
13656,34.2
13657,19.3
13658,31.7
13661,10.8
13664,32.9
13670,38.4
13671,20.7
13672,11.8
13673,-4.7
13674,14.7
13675,17.9
13678,2.5
13682,51.4
13683,2.3
13684,40.8
13685,46.8
13687,20.9
13689,42.3
13690,14.2
13694,26.7
13697,32.6
13698,28.8
13700,46.4
13701,39.2
13705,17.5
13707,19.3
13708,4.8
13711,13.3
13713,31.7
13714,27.1
13715,24.6
13719,21.8
13721,13.9
13722,41.0
13723,49.3
13726,15.6
13727,32.2
13732,37.9
13733,12.3
13735,23.6
13748,31.3
13750,22.4
13751,36.5
13753,36.0
13754,16.9
13756,5.4
13757,37.5
13758,9.3
13759,41.4
13760,10.8
13761,29.1
13763,6.8
13764,5.8
13765,14.2
13773,-7.2
13775,29.5
13776,8.6
13778,10.6
13779,4.4
13780,39.5
13781,7.0
13786,46.8
13787,14.2
13788,20.8
13789,7.0
13796,17.5
13798,26.2
13799,9.4
13800,6.9
13801,28.8
13803,29.3
13804,20.1
13805,13.8
13806,3.6
13807,29.5
13810,10.8
13815,11.8
13816,38.6
13818,46.1
13819,35.6
13820,28.1
13822,51.9
13823,38.2
13825,33.9
13826,13.1
13828,44.1
13829,13.9
13831,30.3
13833,35.4
13834,6.3
13835,26.2
13838,48.9
13840,25.9
13844,14.3
13845,21.0
13846,2.6
13848,26.2
13851,39.5
13852,31.6
13853,17.3
13855,26.3
13856,26.1
13859,4.3
13860,5.6
13862,3.2
13863,8.5
13864,14.8
13866,37.9
13868,41.0
13869,50.3
13870,47.7
13872,-2.1
13875,24.8
13876,23.7
13881,15.4
13883,20.3
13884,49.3
13885,41.7
13887,41.7
13888,35.6
13891,43.9
13893,18.0
13896,28.8
13897,11.0
13900,24.9
13901,28.5
13903,6.0
13904,7.5
13908,41.1
13910,13.3
13912,39.7
13915,33.1
13916,41.9
13917,17.2
13918,15.0
13921,20.2
13922,46.8
13924,32.3
13925,9.1
13926,21.8
13930,18.9
13933,43.1
13934,18.5
13937,32.0
13938,24.7
13940,26.9
13941,13.8
13944,24.3
13946,33.9
13949,36.2
13952,7.8
13953,39.8
13954,27.1
13955,22.8
13957,9.1
13959,10.8
13960,23.3
13961,31.2
13964,22.0
13966,8.7
13967,22.1
13969,43.5
13971,48.2
13972,-4.7
13973,24.0
13975,12.9
13978,3.3
13979,20.2
13980,12.4
13981,6.9
13984,49.3
13986,29.2
13991,44.6
13992,25.9
13994,16.3
13995,51.6
13997,26.2
13999,10.3
14002,9.0
14005,36.4
14006,48.4
14008,40.1
14009,13.3
14010,16.4
14011,21.0
14014,5.4
14016,16.9
14019,21.5
14021,49.3
14027,21.1
14029,26.7
14030,12.2
14033,23.6
14035,12.9
14039,16.8
14040,36.0
14041,5.6
14046,24.9
14047,31.3
14048,41.0
14051,36.2
14054,10.7
14055,35.5
14057,20.7
14059,10.8
14060,16.8
14061,13.3
14063,32.0
14064,51.5
14065,38.9
14067,12.4
14070,48.2
14071,-7.2
14076,15.1
14077,3.4
14078,14.5
14079,17.7
14082,28.9
14083,30.3
14084,46.8
14085,31.7
14090,47.1
14091,48.3
14092,12.8
14093,29.6
14094,41.0
14096,26.2
14097,13.6
14101,3.4
14102,29.1
14104,26.3
14107,32.2
14109,10.8
14111,34.0
14116,22.1
14117,13.4
14118,44.1
14121,51.9
14123,40.3
14124,30.8
14129,11.1
14132,49.6
14133,41.0
14134,26.2
14138,37.3
14142,49.4
14144,7.7
14146,26.2
14148,34.2
14150,26.1
14151,4.9
14152,18.5
14158,8.2
14162,13.2
14163,5.2
14164,47.4
14165,4.5
14168,39.1
14170,36.3
14171,-2.1
14172,31.0
14180,6.1
14181,24.6
14183,49.3
14186,8.4
14187,9.8
14188,26.0
14193,27.9
14195,28.8
14196,3.0
14197,28.8
14198,24.3
14200,31.2
14201,51.4
14205,22.0
14206,4.7
14208,15.9
14209,43.4
14210,18.7
14213,24.4
14215,32.6
14216,41.5
14220,46.8
14221,38.4
14222,34.8
14223,43.6
14224,25.9
14229,16.2
14232,18.5
14233,32.7
14234,33.2
14237,4.8
14242,10.1
14243,45.4
14244,7.3
14245,33.9
14247,8.2
14252,16.0
14253,44.7
14254,41.5
14256,51.4
14257,19.8
14258,10.8
14259,38.9
14260,29.6
14261,28.7
14262,7.1
14264,49.0
14265,50.4
14267,23.6
14270,-4.7
14273,26.6
14274,33.6
14276,36.2
14277,49.9
14278,37.3
14280,22.3
14281,14.2
14282,49.3
14283,51.7
14284,12.0
14285,6.7
14289,31.8
14291,51.1
14292,20.3
14293,19.6
14294,42.9
14295,28.8
14296,39.2
14298,39.7
14299,7.2
14300,31.8
14301,32.4
14302,12.9
14303,47.7
14304,27.4
14308,10.8
14311,6.4
14314,44.0
14317,12.6
14318,44.6
14319,37.5
14320,49.3
14321,34.4
14322,46.4
14324,4.7
14326,28.5
14328,49.4
14330,36.9
14331,7.7
14332,21.0
14333,12.4
14334,43.2
14335,27.0
14336,23.3
14337,26.7
14338,11.4
14341,36.2
14342,10.6
14345,31.3
14347,21.5
14349,42.1
14353,36.6
14355,23.1
14357,8.2
14358,8.0
14361,43.9
14362,5.8
14365,32.7
14366,28.3
14367,15.4
14368,3.8
14369,0.5
14370,44.4
14375,17.5
14377,32.1
14378,4.8
14379,25.8
14381,51.9
14382,10.2
14383,19.9
14385,16.8
14389,27.8
14392,18.6
14393,28.8
14396,13.2
14399,36.7
14401,47.2
14402,43.0
14404,13.7
14405,23.6
14406,31.9
14407,31.3
14408,39.9
14409,8.2
14412,26.1
14413,15.9
14417,10.8
14418,38.6
14420,32.2
14422,9.7
14423,47.5
14426,40.9
14430,-9.8
14436,46.6
14438,7.3
14441,42.4
14443,44.2
14445,5.5
14446,32.0
14447,39.0
14451,18.1
14455,21.0
14457,46.0
14461,5.3
14466,39.0
14468,5.6
14470,51.1
14475,49.4
14477,14.7
14478,26.7
14479,49.3
14480,23.0
14481,11.0
14482,48.8
14491,18.5
14492,42.9
14493,51.6
14494,37.3
14498,22.3
14499,3.9
14500,36.8
14503,21.8
14504,33.9
14505,30.6
14506,15.1
14508,14.9
14510,43.2
14512,38.2
14513,29.7
14514,17.9
14517,10.8
14518,6.7
14520,21.5
14521,40.8
14522,32.2
14524,2.4
14529,-7.2
14531,40.6
14535,25.5
14537,22.0
14538,35.1
14540,18.9
14541,46.8
14543,49.9
14545,4.3
14546,31.4
14549,36.8
14553,17.3
14554,26.2
14558,46.1
14560,31.0
14565,25.2
14566,10.8
14569,33.5
14570,47.7
14571,3.6
14572,51.3
14576,32.6
14578,45.3
14579,51.9
14580,37.1
14581,25.0
14583,33.8
14584,46.6
14589,18.4
14590,49.3
14592,26.2
14593,48.3
14594,22.9
14595,27.4
14596,5.3
14602,12.3
14604,28.8
14609,50.1
14610,25.5
14611,48.7
14612,24.6
14613,25.9
14616,8.2
14620,8.8
14622,25.9
14624,13.3
14625,16.7
14626,2.6
14627,0.5
14628,48.0
14630,17.3
14634,34.5
14636,34.3
14638,38.7
14640,54.5
14642,49.3
14643,6.7
14645,32.8
14647,46.0
14648,44.0
14651,13.5
14652,31.3
14654,42.5
14656,22.6
14657,47.6
14658,11.2
14659,13.7
14660,17.6
14662,47.1
14663,6.7
14664,23.6
14668,29.2
14669,34.4
14672,17.5
14674,15.4
14676,21.0
14678,16.8
14682,50.6
14684,45.6
14687,15.5
14688,35.5
14689,-12.4
14691,35.4
14693,9.9
14703,33.9
14704,16.0
14705,42.4
14707,39.7
14710,2.4
14715,13.3
14718,32.0
14722,24.0
14724,19.6
14726,46.7
14727,6.5
14728,-2.1
14731,35.4
14734,27.7
14735,34.9
14740,49.3
14741,51.0
14742,22.8
14743,15.7
14745,32.6
14746,30.8
14748,7.2
14751,26.7
14752,28.8
14754,11.6
14755,29.0
14758,37.3
14760,46.9
14761,25.4
14763,18.0
14764,43.5
14765,13.3
14769,8.7
14770,43.9
14771,51.5
14772,36.2
14774,33.2
14776,27.4
14777,43.2
14778,49.3
14783,21.3
14786,5.8
14789,47.1
14790,21.0
14794,41.0
14795,3.4
14798,12.0
14800,21.2
14802,31.3
14804,32.8
14806,11.1
14807,30.9
14808,51.5
14809,3.8
14812,49.8
14814,14.1
14815,10.8
14817,21.1
14818,21.1
14825,31.2
14827,-7.2
14828,48.8
14829,23.2
14836,10.7
14838,10.4
14839,19.3
14840,49.3
14841,13.6
14844,21.2
14845,30.4
14846,6.6
14847,5.3
14850,43.1
14851,41.1
14852,11.6
14853,26.2
14854,35.8
14856,43.8
14859,41.7
14861,41.2
14863,17.3
14864,16.0
14865,10.8
14866,33.5
14867,9.4
14870,2.1
14871,23.2
14873,10.9
14875,39.2
14877,49.3
14879,15.5
14880,11.6
14882,42.3
14887,35.7
14888,28.9
14889,23.6
14890,13.5
14895,13.9
14900,12.4
14903,28.8
14904,20.5
14905,49.0
14907,38.9
14911,21.1
14915,8.2
14916,47.1
14917,14.7
14921,3.9
14924,23.7
14926,0.5
14934,42.4
14938,51.9
14943,42.6
14944,10.8
14945,14.5
14950,31.3
14952,30.1
14955,21.2
14956,33.0
14958,8.7
14962,23.6
14966,18.5
14968,3.0
14970,15.4
14973,19.0
14976,18.5
14977,43.6
14979,30.9
14980,19.4
14984,50.7
14985,44.6
14986,33.7
14988,-9.8
14990,48.8
14993,42.3
14995,51.4
14998,32.4
15000,41.6
15002,46.0
15003,48.1
15004,44.2
15008,45.3
15010,14.4
15012,21.0
15014,23.3
15015,47.2
15016,45.7
15020,23.1
15024,18.3
15025,5.6
15026,18.1
15029,6.8
15030,45.1
15033,22.2
15034,4.2
15035,24.9
15036,42.1
15037,49.3
15040,28.2
15043,2.2
15044,40.1
15046,41.9
15048,19.0
15049,23.6
15051,8.8
15053,27.4
15055,24.8
15057,48.7
15058,51.3
15060,39.0
15061,32.5
15062,28.8
15067,22.1
15071,20.9
15072,50.1
15073,23.5
15074,8.2
15075,31.5
15076,32.6
15082,14.9
15083,2.8
15084,37.0
15085,3.0
15087,24.9
15088,44.7
15090,34.1
15093,45.6
15096,51.9
15097,45.3
15099,23.7
15100,4.6
15102,44.3
15107,33.1
15108,47.4
15110,31.3
15111,6.0
15113,50.2
15114,12.7
15115,28.2
15116,41.8
15118,49.6
15119,48.6
15120,24.4
15121,18.8
15122,26.2
15123,26.0
15124,19.9
15125,23.6
15127,18.3
15130,34.6
15132,5.8
15134,15.9
15136,38.4
15139,23.1
15141,3.0
15142,6.8
15145,26.6
15147,-12.4
15150,16.6
15154,30.1
15156,38.2
15157,11.0
15158,16.2
15159,12.4
15160,36.5
15163,50.3
15167,32.5
15168,34.0
15170,23.7
15173,13.3
15175,27.9
15176,2.9
15177,50.8
15184,48.3
15185,-2.1
15187,18.2
15188,47.5
15189,34.3
15193,41.1
15194,22.4
15196,37.4
15197,41.5
15198,49.3
15199,13.5
15201,19.2
15202,4.3
15203,43.2
15204,39.5
15205,15.2
15209,10.9
15210,31.3
15211,30.0
15213,5.6
15216,43.6
15218,28.9
15219,10.4
15220,18.6
15222,15.9
15225,24.3
15227,17.0
15233,3.7
15235,8.5
15236,46.8
15238,4.8
15240,45.1
15245,45.0
15246,28.9
15248,18.5
15253,45.6
15256,51.9
15257,23.4
15260,33.9
15263,10.6
15265,20.8
15266,43.5
15267,27.7
15272,10.8
15273,41.5
15280,33.5
15283,40.0
15285,-4.7
15287,14.5
15288,34.3
15293,30.6
15294,39.9
15295,22.4
15296,30.0
15297,46.8
15299,4.6
15300,21.3
15303,18.2
15305,19.5
15307,2.9
15308,44.0
15310,28.8
15311,3.1
15313,6.0
15314,40.2
15316,24.0
15319,30.9
15322,32.1
15323,13.3
15324,6.2
15333,42.3
15335,49.3
15336,34.4
15337,2.1
15338,16.7
15339,48.0
15345,45.0
15346,9.4
15347,23.6
15348,45.4
15349,37.4
15351,25.0
15353,28.2
15355,39.9
15356,4.4
15358,12.8
15359,18.4
15360,28.8
15361,9.3
15362,49.3
15363,39.4
15364,12.8
15365,17.2
15368,16.1
15371,33.4
15373,8.2
15374,14.9
15377,27.4
15379,31.9
15384,0.5
15387,39.4
15388,37.9
15390,13.6
15391,28.9
15392,35.7
15395,51.9
15396,9.5
15397,13.1
15399,24.0
15405,23.1
15408,31.3
15411,25.8
15412,44.1
15413,47.1
15414,24.4
15416,13.0
15420,26.2
15424,8.2
15425,24.3
15426,16.0
15427,19.9
15430,25.1
15432,10.8
15434,23.4
15435,35.8
15436,46.5
15439,21.4
15440,49.2
15441,24.2
15446,-12.4
15448,17.7
15457,4.1
15458,32.7
15459,36.5
15460,47.5
15466,47.7
15467,32.3
15469,42.7
15471,15.9
15472,15.2
15473,26.8
15475,40.7
15476,20.7
15477,15.6
15478,16.3
15483,-2.1
15490,14.0
15493,16.3
15494,27.1
15496,51.9
15497,18.7
15500,31.4
15504,44.4
15506,24.3
15508,25.0
15509,28.8
15513,14.7
15517,43.3
15518,3.4
15521,15.9
15523,39.7
15524,14.0
15526,21.5
15527,23.0
15528,25.8
15530,3.3
15534,46.8
15536,45.6
15537,3.1
15539,45.3
15542,23.1
15544,19.7
15546,15.9
15553,17.4
15554,24.3
15555,12.0
15558,33.9
15559,6.4
15560,17.9
15563,25.6
15565,12.4
15567,40.8
15568,5.0
15569,31.4
15570,41.4
15571,10.8
15580,34.2
15581,4.3
15584,-2.1
15585,44.6
15586,38.9
15587,41.8
15588,20.6
15589,19.9
15590,27.3
15591,14.1
15592,16.5
15594,15.2
15596,49.3
15599,14.2
15600,51.2
15601,42.0
15605,34.7
15608,26.2
15612,23.1
15613,14.3
15616,49.7
15618,47.7
15619,45.2
15621,13.3
15622,8.5
15624,22.6
15626,51.2
15627,33.6
15628,47.8
15630,35.6
15632,2.7
15634,49.3
15635,49.9
15636,15.0
15637,3.4
15640,52.0
15643,38.8
15644,5.5
15646,23.6
15649,38.8
15654,42.7
15657,31.2
15658,39.7
15659,31.3
15661,20.1
15666,23.1
15667,5.9
15668,36.5
15669,31.9
15670,30.4
15671,8.2
15672,38.8
15673,43.7
15678,51.7
15679,6.3
15681,7.1
15682,0.5
15683,46.3
15684,27.1
15685,39.4
15689,24.4
15691,48.5
15693,51.9
15695,22.1
15696,5.8
15697,38.5
15698,25.5
15699,23.3
15701,6.7
15702,34.1
15704,34.4
15705,27.6
15706,35.4
15707,28.8
15708,16.0
15709,25.1
15711,31.2
15712,22.0
15713,34.5
15716,41.1
15717,21.2
15719,26.2
15720,46.3
15721,37.4
15730,2.8
15731,10.8
15733,20.6
15734,8.7
15735,22.2
15737,50.9
15739,31.3
15740,2.8
15741,34.1
15743,5.4
15744,-9.8
15748,37.9
15750,37.1
15752,36.6
15754,2.2
15756,44.2
15758,11.0
15759,37.2
15761,26.8
15765,47.4
15769,23.6
15772,44.8
15773,17.8
15774,43.9
15779,36.0
15780,33.2
15781,5.6
15789,23.1
15793,49.3
15797,47.7
15798,5.4
15799,4.7
15800,5.4
15802,45.8
15805,21.0
15806,28.6
15807,20.8
15808,17.4
15809,17.4
15810,45.4
15813,12.7
15816,31.5
15817,31.3
15819,6.5
15820,24.7
15821,39.0
15822,19.0
15823,15.1
15824,17.0
15827,17.1
15829,8.4
15830,10.8
15832,11.4
15834,32.3
15838,16.1
15839,2.8
15842,46.9
15843,-4.7
15846,45.7
15851,10.3
15854,38.1
15855,46.8
15856,41.2
15857,26.0
15858,13.3
15861,19.9
15862,6.1
15864,47.8
15867,26.2
15868,36.1
15873,39.7
15875,22.3
15876,17.5
15878,45.4
15879,26.8
15880,10.8
15881,17.1
15883,12.2
15890,50.5
15892,49.3
15893,47.9
15894,5.8
15896,35.7
15900,2.4
15902,19.8
15905,26.2
15907,20.7
15908,15.4
15909,49.2
15910,22.9
15913,17.9
15914,42.7
15916,19.5
15918,28.8
15925,49.5
15927,48.8
15930,8.2
15931,40.8
15932,20.2
15935,10.4
15938,7.9
15940,29.5
15941,0.5
15943,18.4
15944,45.8
15945,42.3
15946,4.9
15950,30.9
15952,51.9
15954,17.2
15956,46.3
15957,41.7
15958,5.8
15964,10.5
15965,28.8
15974,51.9
15975,51.0
15978,23.6
15980,18.5
15987,42.4
15988,44.0
15990,21.0
15991,50.7
15994,7.5
15998,25.0
15999,39.9
16003,-12.4
16009,10.9
16011,28.9
16013,49.1
16014,6.9
16016,33.9
16018,13.0
16019,28.6
16020,49.7
16026,6.6
16028,13.3
16035,46.6
16040,40.3
16041,-2.1
16042,38.6
16045,51.6
16048,50.0
16050,5.3
16052,14.9
16053,21.3
16054,49.3
16056,15.0
16061,37.2
16062,51.1
16064,10.7
16066,28.8
16067,47.7
16069,7.1
16072,32.4
16074,20.5
16076,25.2
16078,13.3
16081,44.1
16082,50.9
16083,44.3
16084,44.0
16085,38.8
16089,7.1
16090,5.2
16091,46.8
16099,17.7
16100,25.6
16101,11.7
16103,6.5
16104,21.0
16105,6.4
16106,38.2
16109,6.4
16112,14.5
16113,18.6
16116,31.3
16117,34.1
16119,20.1
16124,44.4
16125,49.6
16126,18.0
16127,3.9
16128,4.9
16129,10.8
16134,17.4
16141,-4.7
16144,2.5
16146,24.0
16153,46.8
16155,6.4
16156,37.6
16163,46.7
16165,32.8
16166,28.8
16169,46.4
16170,22.4
16172,32.7
16173,17.2
16174,40.4
16175,18.0
16177,22.3
16179,10.8
16180,44.0
16182,23.6
16183,39.5
16186,17.3
16187,51.4
16189,17.2
16191,51.9
16192,41.2
16193,39.1
16196,11.2
16198,31.6
16199,9.1
16200,48.9
16201,44.9
16203,23.6
16207,31.9
16212,19.1
16216,28.8
16217,4.8
16221,17.3
16222,6.1
16223,32.9
16224,38.7
16225,7.1
16227,23.0
16228,8.2
16229,7.2
16230,36.7
16231,21.1
16232,34.0
16234,36.5
16237,6.7
16238,4.9
16240,0.5
16243,39.7
16244,44.0
16248,37.1
16250,28.3
16251,51.9
16253,8.6
16256,35.2
16258,8.7
16259,39.0
16261,22.2
16263,9.1
16264,28.8
16265,43.2
16266,48.3
16268,9.6
16275,6.2
16276,23.6
16278,42.5
16280,19.8
16281,33.9
16286,10.5
16288,18.5
16289,41.1
16290,43.8
16291,30.4
16295,21.1
16296,9.3
16302,-12.4
16304,28.5
16309,33.6
16310,26.8
16311,42.0
16312,37.4
16315,36.5
16316,39.3
16318,2.6
16320,30.4
16322,9.0
16323,42.0
16326,33.7
16327,13.3
16330,48.8
16332,33.7
16334,26.6
16335,40.0
16336,29.6
16339,-2.1
16340,24.8
16341,37.2
16342,9.9
16345,3.5
16346,50.0
16349,35.1
16350,47.6
16352,49.3
16356,15.4
16360,19.0
16362,26.7
16364,28.8
16366,8.4
16367,42.3
16368,29.8
16371,49.0
16373,9.2
16376,19.5
16377,13.3
16379,16.8
16381,11.3
16382,37.9
16385,4.2
16387,35.8
16390,46.8
16392,27.6
16393,48.3
16394,34.1
16398,37.3
16401,9.4
16402,21.0
16403,33.6
16404,27.8
16405,2.8
16406,21.0
16407,16.4
16408,3.4
16410,41.6
16413,43.6
16414,31.3
16417,15.1
16418,22.9
16419,19.9
16420,17.0
16424,25.9
16426,24.6
16427,10.8
16429,42.2
16430,36.6
16437,32.3
16438,19.1
16439,37.9
16440,-4.7
16441,3.2
16442,45.5
16447,33.7
16449,50.6
16450,31.2
16452,49.3
16455,18.5
16457,21.6
16458,36.4
16459,12.2
16460,6.7
16462,21.4
16463,33.4
16464,26.2
16465,19.7
16471,42.3
16472,13.0
16473,29.9
16476,28.5
16477,13.3
16478,48.3
16479,24.1
16481,46.0
16482,19.4
16484,36.9
16485,47.6
16489,49.3
16490,32.7
16494,43.5
16495,5.7
16496,21.5
16499,49.9
16500,22.8
16502,23.6
16503,8.4
16504,48.4
16507,44.2
16508,3.2
16512,6.4
16514,6.9
16515,28.8
16518,38.3
16519,11.7
16520,21.1
16525,48.1
16527,8.2
16528,26.1
16530,31.5
16533,35.3
16535,24.4
16537,46.1
16538,0.5
16547,39.7
16549,51.9
16553,32.8
16554,12.7
16556,2.8
16558,18.5
16560,40.0
16562,28.8
16563,38.5
16564,44.8
16567,28.1
16575,26.2
16578,41.9
16581,40.3
16584,38.5
16586,30.0
16587,15.9
16588,49.5
16590,30.5
16591,17.4
16593,31.5
16595,39.7
16596,15.0
16597,42.4
16599,38.6
16600,-9.8
16601,49.9
16603,13.7
16604,24.0
16606,30.0
16607,31.4
16611,46.1
16612,41.6
16614,49.9
16615,22.4
16616,12.8
16618,4.8
16619,30.2
16623,38.4
16624,21.0
16625,8.3
16626,38.5
16627,26.7
16629,42.4
16630,14.8
16631,27.5
16637,5.6
16640,27.9
16644,42.7
16645,28.4
16647,40.5
16649,49.3
16651,43.7
16652,18.6
16653,36.4
16655,9.5
16656,46.5
16659,20.4
16660,35.2
16661,23.6
16667,35.1
16668,35.2
16673,28.8
16674,45.6
16677,9.9
16678,47.3
16681,37.8
16682,47.1
16683,40.0
16684,7.5
16685,12.9
16686,8.2
16689,14.3
16692,12.5
16694,23.8
16695,27.5
16696,19.1
16697,28.8
16698,0.5
16700,16.9
16702,49.1
16707,23.1
16708,47.3
16709,54.5
16712,34.0
16714,27.1
16717,32.5
16718,22.0
16721,28.8
16730,18.2
16734,26.2
16735,29.6
16739,26.0
16740,15.4
16741,16.0
16743,18.3
16746,13.3
16748,30.7
16749,18.7
16750,6.0
16752,19.9
16756,12.0
16758,-9.8
16761,48.9
16762,18.1
16765,19.2
16766,41.4
16767,18.5
16768,33.4
16770,48.2
16772,41.6
16780,37.0
16781,26.4
16784,21.0
16786,28.9
16790,24.9
16792,15.8
16795,50.3
16796,5.6
16797,5.2
16799,33.8
16802,50.5
16804,21.3
16807,49.3
16808,46.4
16811,48.4
16815,23.4
16816,18.2
16818,8.0
16820,21.0
16822,39.4
16825,7.9
16830,32.9
16831,26.7
16833,31.3
16835,14.9
16836,13.2
16837,32.7
16838,19.8
16839,17.9
16840,40.4
16841,40.9
16842,23.8
16845,8.2
16847,46.3
16851,32.6
16852,24.0
16857,0.5
16859,31.9
16860,13.9
16861,38.1
16862,47.7
16863,4.5
16865,49.8
16866,19.5
16867,27.2
16868,51.9
16869,11.2
16872,43.8
16873,21.8
16880,28.8
16885,11.6
16886,3.9
16889,39.9
16892,26.2
16896,18.4
16897,25.8
16898,34.0
16900,10.6
16904,16.0
16906,10.8
16907,8.3
16909,16.0
16918,-12.4
16919,29.1
16920,39.3
16921,17.3
16923,35.1
16924,10.4
16926,21.1
16929,29.7
16930,30.4
16931,33.9
16933,28.0
16934,14.7
16936,34.7
16937,4.5
16940,6.1
16942,33.7
16943,27.3
16944,13.3
16945,3.7
16949,2.4
16950,12.2
16951,47.5
16953,29.7
16955,5.6
16956,-2.1
16958,44.7
16959,45.5
16962,23.9
16966,14.1
16969,49.3
16973,41.7
16975,28.3
16976,22.0
16977,39.3
16978,7.2
16979,19.3
16982,28.8
16983,15.1
16987,22.8
16990,2.8
16992,14.3
16994,15.9
16996,9.7
17000,21.6
17001,32.8
17002,23.9
17004,44.8
17006,44.2
17009,48.6
17014,43.2
17018,13.3
17022,22.1
17024,37.0
17028,26.8
17031,4.4
17032,33.9
17033,18.6
17035,12.3
17037,48.3
17039,44.6
17040,16.9
17041,30.7
17044,13.3
17053,7.4
17056,-2.1
17057,36.5
17059,37.5
17061,43.1
17062,19.5
17063,24.2
17065,33.3
17069,51.9
17070,36.1
17071,42.2
17075,20.2
17076,4.1
17077,51.1
17080,46.0
17081,28.8
17082,49.5
17084,50.5
17085,38.1
17091,44.5
17092,34.5
17093,13.3
17097,34.8
17100,29.9
17102,45.0
17103,35.7
17104,24.7
17106,46.8
17107,45.7
17108,29.5
17109,6.5
17110,9.9
17111,11.1
17114,15.0
17118,49.1
17119,21.0
17120,20.5
17121,25.9
17122,27.6
17123,16.4
17124,21.8
17128,24.3
17131,31.3
17135,32.5
17138,43.6
17141,43.6
17143,8.2
17145,43.5
17149,6.1
17150,41.1
17153,30.1
17154,30.5
17155,0.5
17156,7.0
17157,27.2
17158,24.8
17159,20.7
17160,5.4
17161,30.6
17163,36.4
17164,16.9
17166,41.7
17167,54.5
17169,32.2
17170,10.3
17172,12.3
17174,7.0
17176,47.9
17179,28.8
17180,33.0
17181,10.9
17185,40.0
17186,40.0
17188,27.9
17191,26.2
17194,34.2
17198,35.1
17204,8.2
17206,25.8
17210,24.0
17211,23.7
17213,21.0
17215,-2.1
17218,18.0
17219,46.9
17224,26.1
17227,49.3
17230,20.1
17231,17.1
17232,32.6
17233,34.4
17234,37.4
17235,33.9
17236,17.3
17241,31.3
17242,51.2
17243,23.6
17245,25.5
17247,26.6
17248,18.8
17251,22.5
17253,13.3
17256,30.2
17257,49.5
17259,38.3
17260,43.5
17263,15.3
17265,49.3
17268,32.6
17269,46.9
17270,26.3
17272,49.3
17274,36.7
17277,21.0
17278,16.9
17283,7.6
17285,12.5
17286,31.7
17288,25.3
17289,51.7
17290,31.3
17291,35.2
17292,7.5
17294,49.5
17295,34.2
17300,25.1
17303,10.8
17304,44.9
17305,40.3
17306,32.7
17308,15.1
17310,35.2
17311,42.9
17314,35.0
17315,-2.1
17319,36.7
17328,46.8
17332,26.2
17333,10.6
17335,49.1
17336,25.4
17338,27.0
17340,28.8
17343,22.1
17345,7.2
17346,19.1
17347,34.4
17352,10.8
17353,38.6
17355,26.4
17358,6.8
17364,28.7
17366,49.3
17367,45.8
17369,20.7
17371,12.7
17373,35.3
17375,9.6
17376,45.0
17377,28.8
17378,26.2
17381,50.3
17383,19.5
17384,2.9
17386,40.8
17387,39.5
17390,31.3
17392,41.3
17393,43.8
17395,26.3
17397,31.9
17399,43.6
17401,20.1
17402,10.8
17403,27.1
17404,34.7
17406,22.1
17407,9.8
17408,46.9
17411,28.5
17414,47.5
17415,-7.2
17419,33.4
17422,7.9
17424,11.7
17425,10.4
17426,12.7
17427,46.8
17428,38.8
17429,41.4
17432,33.9
17433,24.2
17436,17.0
17438,25.3
17440,26.2
17442,14.6
17444,42.3
17447,51.9
17452,24.2
17453,8.2
17454,37.8
17461,14.7
17462,51.0
17463,35.5
17464,44.2
17468,26.5
17470,42.5
17471,43.0
17474,14.3
17475,16.5
17476,15.9
17480,29.8
17481,37.7
17483,30.6
17487,51.7
17488,36.5
17489,27.9
17491,12.8
17492,48.9
17495,20.6
17498,40.3
17500,3.9
17502,13.3
17507,25.1
17508,11.5
17509,43.2
17510,7.0
17513,5.9
17514,-2.1
17515,19.4
17519,35.9
17521,35.0
17523,4.0
17526,49.3
17528,7.2
17529,39.5
17530,49.0
17532,25.0
17537,41.5
17539,31.3
17543,15.5
17544,3.7
17545,29.1
17546,37.0
17550,10.9
17551,15.9
17552,28.5
17554,17.7
17555,6.9
17556,47.2
17557,9.8
17559,39.5
17560,20.3
17564,46.8
17565,42.5
17568,13.8
17571,29.5
17573,41.6
17575,31.3
17576,21.0
17581,24.3
17582,35.8
17584,19.6
17585,11.9
17587,23.4
17589,33.9
17590,52.0
17591,20.4
17592,35.7
17596,19.8
17599,28.4
17601,10.8
17606,22.4
17607,26.5
17608,24.7
17609,8.6
17610,28.9
17613,-4.7
17614,15.5
17615,6.3
17616,12.7
17617,42.0
17620,43.0
17621,39.7
17626,49.3
17628,32.6
17629,5.7
17630,11.5
17631,32.2
17633,47.5
17636,17.5
17638,26.6
17639,28.8
17643,17.5
17644,32.7
17647,23.6
17648,44.6
17649,48.1
17650,17.7
17651,10.8
17652,37.6
17653,38.4
17658,22.7
17660,40.4
17663,46.2
17664,51.9
17668,49.5
17670,15.4
17671,50.2
17672,11.8
17676,26.2
17678,40.4
17680,50.7
17682,35.4
17687,35.2
17688,28.8
17692,47.7
17695,35.7
17699,13.4
17701,10.8
17703,20.2
17705,33.4
17707,44.2
17709,30.0
17711,9.7
17714,-7.2
17717,43.2
17718,27.7
17719,50.7
17720,19.1
17721,49.4
17724,35.5
17726,46.8
17727,13.9
17729,38.5
17732,42.5
17735,49.3
17736,37.4
17738,23.6
17740,42.0
17743,9.1
17745,27.3
17746,40.2
17748,21.5
17749,48.9
17750,7.2
17751,8.2
17752,42.5
17760,35.6
17762,44.2
17763,49.8
17766,41.8
17767,10.3
17768,15.2
17771,34.9
17772,18.1
17775,13.3
17777,10.0
17782,20.9
17783,48.2
17786,31.3
17787,33.9
17790,41.5
17792,29.3
17793,42.3
17794,9.3
17795,18.7
17796,32.9
17797,17.3
17798,50.8
17800,13.3
17801,39.9
17802,24.6
17803,15.2
17808,33.5
17812,0.5
17815,20.9
17817,20.6
17818,12.7
17819,20.7
17821,42.9
17822,16.0
17823,51.9
17824,48.2
17825,7.5
17827,6.9
17828,40.6
17829,28.6
17830,44.5
17831,47.3
17832,19.1
17833,12.7
17834,48.1
17835,11.4
17836,50.3
17837,33.9
17843,36.4
17844,9.2
17845,12.3
17846,43.3
17847,34.2
17849,23.6
17850,7.0
17851,31.7
17852,24.2
17853,49.6
17856,23.4
17857,17.0
17859,7.0
17860,40.9
17861,28.8
17864,16.0
17870,26.8
17873,-7.2
17878,6.0
17883,21.1
17884,8.7
17886,39.1
17888,3.4
17889,5.7
17893,35.1
17897,14.2
17898,14.1
17899,21.0
17900,15.3
17903,5.0
17904,6.9
17905,11.2
17907,10.4
17909,12.4
17910,21.5
17911,3.0
17914,11.8
17915,27.4
17916,45.9
17917,21.7
17918,16.6
17919,47.4
17920,4.3
17921,30.7
17922,51.6
17923,51.9
17924,35.1
17927,26.2
17928,7.4
17930,29.2
17931,40.8
17935,28.8
17936,20.9
17937,39.0
17939,20.7
17941,26.2
17943,34.7
17947,26.2
17948,36.5
17949,5.3
17950,22.8
17955,49.9
17957,26.9
17959,8.2
17960,4.1
17961,29.3
17964,44.3
17966,21.7
17967,4.5
17968,17.0
17970,27.1
17972,0.5
17976,42.7
17978,13.1
17983,51.9
17985,13.3
17989,43.4
17990,10.1
17995,31.3
18000,44.2
18001,34.7
18004,41.8
18006,14.8
18007,23.5
18008,23.6
18009,16.9
18010,31.4
18011,6.2
18012,3.9
18016,37.9
18018,36.2
18019,13.5
18020,26.2
18021,36.1
18022,21.3
18023,47.6
18032,41.8
18033,-9.8
18034,30.5
18035,50.3
18038,38.0
18040,39.5
18042,34.3
18045,41.6
18046,13.5
18050,8.5
18053,42.7
18056,51.9
18057,37.3
18058,21.0
18059,31.8
18060,36.1
18063,8.2
18064,5.5
18065,45.2
18067,29.9
18068,7.0
18070,5.6
18071,21.9
18072,29.2
18075,31.0
18076,25.2
18079,2.5
18081,51.9
18083,15.9
18086,7.9
18087,18.6
18091,14.3
18092,31.9
18093,33.9
18094,28.8
18098,21.9
18099,8.9
18101,45.7
18102,49.6
18104,22.1
18107,28.8
18109,2.2
18112,10.7
18114,23.2
18116,38.7
18118,39.8
18119,8.2
18122,29.5
18123,27.5
18126,20.3
18127,15.8
18129,2.5
18130,0.5
18131,45.2
18134,48.4
18136,13.6
18138,40.6
18139,20.4
18142,54.5
18143,13.5
18149,27.2
18150,16.9
18154,31.3
18158,36.1
18159,33.1
18162,6.1
18165,22.4
18166,24.4
18167,23.6
18172,46.3
18173,18.3
18175,6.2
18180,23.6
18181,17.6
18182,47.9
18188,20.9
18189,12.9
18190,36.5
18191,19.3
18192,-12.4
18199,3.3
18204,10.1
18205,31.3
18208,6.1
18210,4.4
18212,42.4
18213,6.4
18216,47.5
18217,13.3
18219,14.2
18222,6.3
18225,18.5
18226,27.7
18227,33.7
18228,37.3
18231,-2.1
18232,30.3
18234,2.6
18236,13.0
18239,42.4
18241,45.1
18242,24.7
18243,49.3
18244,26.6
18245,26.6
18255,31.3
18258,44.9
18260,37.0
18264,11.6
18267,19.3
18268,13.3
18270,27.0
18272,47.4
18273,46.7
18275,17.2
18277,8.5
18278,47.5
18280,49.3
18286,36.9
18288,2.2
18289,6.7
18292,26.2
18293,21.6
18295,29.0
18296,13.6
18298,33.7
18301,29.8
18302,18.0
18303,14.0
18306,28.8
18310,21.3
18314,14.9
18315,39.8
18316,24.7
18317,43.6
18318,10.8
18326,24.9
18327,45.3
18329,23.8
18330,-4.7
18333,5.0
18334,21.4
18341,13.2
18342,49.3
18344,18.2
18345,49.7
18347,44.1
18348,48.6
18350,42.0
18351,24.8
18353,33.8
18355,28.8
18365,44.1
18366,44.1
18368,13.3
18369,34.0
18379,25.6
18380,51.9
18381,13.8
18382,13.4
18384,10.9
18390,31.0
18392,23.0
18393,28.8
18396,43.4
18402,38.3
18403,18.7
18405,28.8
18409,39.7
18410,27.0
18416,51.0
18417,8.2
18418,51.7
18426,19.0
18429,-2.1
18433,41.0
18435,17.1
18439,16.0
18440,28.7
18441,4.2
18442,51.9
18444,17.2
18445,45.7
18451,23.9
18454,31.3
18464,42.1
18465,44.2
18466,15.9
18469,29.1
18470,51.5
18471,21.4
18475,44.8
18477,44.3
18478,10.1
18479,46.8
18480,4.6
18483,31.7
18485,44.4
18486,46.6
18487,20.0
18491,18.5
18492,31.0
18495,46.5
18497,42.1
18498,22.7
18504,33.9
18505,7.9
18507,7.4
18508,26.2
18510,51.7
18511,25.6
18516,15.9
18517,17.3
18519,24.5
18520,16.5
18529,-2.1
18530,39.2
18537,22.9
18538,25.1
18540,27.6
18541,49.3
18544,41.5
18550,9.6
18552,21.4
18553,28.8
18562,30.8
18564,16.8
18566,18.9
18567,13.3
18569,49.2
18576,36.0
18578,39.9
18579,49.3
18581,31.0
18583,32.4
18585,14.9
18587,36.3
18588,28.4
18591,23.6
18593,19.4
18595,22.8
18598,44.1
18601,20.9
18603,31.5
18604,31.3
18607,31.9
18608,48.1
18609,49.7
18610,37.9
18611,22.4
18612,12.9
18616,10.8
18617,8.6
18618,22.5
18620,29.4
18624,3.7
18627,40.4
18629,-7.2
18633,24.1
18634,24.0
18636,24.8
18640,31.8
18641,46.8
18645,25.4
18646,39.8
18650,12.3
18653,30.3
18654,28.8
18655,43.3
18658,9.2
18661,13.1
18662,25.4
18663,11.2
18665,39.3
18666,13.3
18668,39.9
18670,24.2
18674,35.5
18677,6.3
18678,51.9
18682,49.3
18684,40.0
18685,51.4
18686,8.2
18687,29.7
18688,23.0
18689,11.4
18691,26.2
18692,41.6
18694,22.3
18697,50.3
18702,34.7
18703,10.4
18704,28.8
18705,12.1
18707,13.6
18708,36.2
18709,40.8
18712,4.6
18714,9.2
18715,32.8
18716,8.2
18719,48.5
18720,14.6
18721,21.0
18723,41.4
18725,42.7
18726,46.5
18727,0.5
18729,43.7
18731,49.6
18739,51.9
18741,20.9
18745,51.2
18747,14.9
18748,13.3
18749,47.9
18751,31.3
18752,21.9
18753,19.2
18756,8.5
18760,19.1
18761,28.9
18762,21.6
18763,40.9
18764,26.2
18769,31.9
18773,6.5
18776,27.3
18777,23.6
18786,14.1
18788,37.8
18789,-9.8
18790,4.4
18792,41.3
18795,45.1
18801,39.1
18802,15.2
18805,28.6
18808,43.4
18809,18.8
18810,28.6
18812,41.0
18813,18.5
18815,19.0
18816,7.3
18821,50.1
18824,33.6
18825,40.2
18826,5.6
18828,28.0
18830,2.5
18832,10.3
18833,19.5
18834,17.6
18835,9.2
18837,42.1
18838,51.9
18839,18.2
18842,50.7
18843,22.5
18844,51.7
18846,50.5
18847,20.3
18848,42.0
18850,26.2
18852,26.0
18853,45.0
18854,49.6
18856,29.5
18860,33.9
18863,28.8
18864,24.3
18865,21.8
18867,35.9
18869,4.1
18870,38.1
18872,49.5
18874,10.4
18875,8.2
18876,14.5
18877,5.8
18878,26.0
18885,47.1
18886,-2.1
18887,6.7
18888,50.4
18897,47.2
18899,51.9
18900,30.0
18902,50.2
18904,48.1
18906,49.6
18907,40.8
18911,35.1
18912,28.8
18913,29.0
18918,25.6
18922,28.2
18924,15.9
18927,26.2
18928,48.0
18929,28.0
18932,12.1
18933,41.9
18936,44.2
18937,5.8
18939,42.1
18940,42.3
18943,30.4
18944,41.9
18945,10.7
18946,42.9
18947,25.7
18949,15.9
18952,35.3
18953,21.6
18955,17.0
18956,23.4
18958,13.7
18961,40.0
18962,33.9
18965,29.1
18966,27.3
18967,25.6
18968,3.0
18969,5.9
18971,4.1
18972,28.4
18974,13.3
18978,17.6
18982,36.2
18984,9.5
18987,-2.1
18990,3.1
18991,36.1
18992,38.5
18994,34.8
18995,2.2
18999,49.3
19002,38.2
19003,26.5
19005,16.9
19009,49.4
19010,5.3
19011,28.8
19013,15.8
19017,26.9
19019,8.9
19020,45.2
19022,5.4
19023,13.3
19024,45.4
19027,15.5
19028,22.8
19031,45.7
19034,18.0
19035,39.0
19036,41.0
19037,49.3
19040,19.8
19044,22.3
19045,36.0
19046,24.4
19047,15.8
19048,43.3
19049,21.0
19050,13.5
19054,38.1
19056,4.8
19058,28.7
19060,40.4
19061,31.3
19062,16.6
19063,29.1
19065,48.9
19067,11.4
19071,2.7
19073,50.4
19074,10.8
19075,27.4
19076,26.7
19080,47.1
19081,36.4
19086,-4.7
19090,12.8
19093,28.7
19097,34.2
19099,46.8
19100,23.3
19104,41.8
19106,45.2
19107,18.8
19109,50.9
19111,26.2
19113,9.7
19114,8.7
19116,26.3
19117,15.4
19119,35.2
19120,19.1
19123,37.2
19124,10.8
19125,33.0
19126,25.0
19128,6.8
19131,4.2
19132,7.3
19136,51.9
19137,23.6
19138,32.5
19139,44.4
19141,26.2
19142,8.6
19145,32.9
19148,26.2
19149,19.5
19150,30.6
19153,4.3
19156,44.4
19157,9.7
19158,38.2
19159,19.6
19160,13.9
19162,28.8
19165,37.3
19166,50.5
19167,24.5
19168,2.2
19171,15.4
19174,8.2
19175,34.4
19177,11.9
19180,25.8
19181,19.0
19185,0.5
19186,10.1
19188,47.5
19190,19.2
19191,50.2
19193,33.6
19196,54.5
19197,20.6
19199,18.1
19200,8.2
19202,23.5
19207,12.6
19209,28.8
19215,32.2
19219,24.2
19221,23.6
19224,16.1
19225,10.2
19226,3.0
19227,41.4
19228,18.7
19229,48.8
19232,17.1
19233,45.0
19234,21.0
19237,51.7
19239,50.2
19240,47.7
19241,17.0
19242,42.5
19244,43.3
19245,31.1
19247,-12.4
19249,9.9
19250,8.5
19252,32.1
19255,27.9
19257,29.3
19258,36.7
19260,33.9
19261,10.9
19263,34.7
19266,49.6
19269,50.4
19271,47.7
19272,13.3
19277,38.4
19279,13.8
19281,48.2
19283,23.7
19284,-4.7
19285,41.5
19287,26.0
19288,46.1
19289,14.9
19293,11.6
19296,17.3
19298,49.3
19299,33.5
19301,19.1
19303,17.2
19304,46.8
19305,27.9
19309,10.2
19310,28.8
19312,50.7
19315,20.8
19319,25.8
19321,18.9
19322,15.9
19325,22.3
19327,37.6
19330,17.4
19331,46.7
19335,49.3
19336,45.3
19337,34.4
19340,43.7
19341,32.7
19342,30.6
19343,40.1
19345,13.3
19346,48.4
19347,21.0
19351,34.4
19352,34.0
19353,8.3
19355,25.5
19356,45.2
19359,50.1
19360,31.3
19367,33.3
19368,38.0
19370,30.4
19373,10.8
19376,2.5
19378,5.3
19382,37.0
19383,26.1
19385,-7.2
19390,25.9
19394,8.4
19397,46.8
19400,45.9
19404,22.3
19408,36.7
19409,26.2
19411,50.5
19412,43.7
19414,8.3
19419,15.1
19421,9.7
19422,13.3
19424,3.7
19425,22.6
19426,32.0
19427,4.7
19430,40.0
19435,49.3
19436,37.9
19437,15.4
19438,43.5
19440,50.7
19444,47.6
19447,26.2
19451,35.9
19452,9.4
19453,14.1
19455,49.2
19460,31.3
19462,7.7
19466,25.0
19469,43.0
19472,8.2
19476,21.8
19477,47.6
19479,14.9
19482,50.0
19483,0.5
19485,18.4
19486,30.6
19487,41.4
19488,45.9
19495,51.9
19497,33.7
19499,28.1
19503,8.3
19505,32.5
19506,13.1
19508,28.8
19513,50.9
19514,32.5
19516,51.3
19518,15.6
19520,23.6
19522,42.1
19527,10.2
19531,30.8
19532,23.6
19534,33.9
19536,43.7
19537,50.1
19538,34.4
19540,18.2
19541,22.9
19543,22.8
19545,-12.4
19546,36.7
19547,41.4
19549,41.9
19556,6.1
19558,36.5
19559,19.6
19561,45.2
19562,3.0
19563,10.4
19570,23.6
19571,13.3
19573,47.6
19575,39.1
19576,25.2
19577,41.0
19578,22.1
19580,2.5
19582,38.0
19583,9.2
19584,-2.1
19587,30.1
19591,30.7
19592,37.2
19593,33.8
19595,23.6
19596,49.3
19598,44.1
19600,22.3
19601,45.2
19603,34.2
19605,17.1
19606,24.6
19608,28.8
19609,26.4
19612,44.1
19614,37.3
19615,17.9
19616,34.9
19617,4.6
19620,15.9
19621,48.1
19622,10.8
19624,14.4
19625,22.0
19626,26.6
19629,9.2
19630,37.3
19633,5.1
19634,46.8
19635,23.6
19636,49.5
19642,42.6
19644,15.4
19646,21.0
19647,30.5
19649,33.1
19651,17.3
19654,13.6
19655,30.7
19658,31.3
19660,31.4
19662,15.9
19664,44.7
19665,39.0
19666,35.6
19667,45.3
19670,41.6
19671,10.8
19672,36.4
19673,10.7
19675,25.4
19680,36.7
19681,18.7
19682,11.9
19683,-7.2
19684,43.4
19685,43.3
19687,6.9
19688,13.1
19692,3.0
19695,26.1
19696,46.8
19697,15.9
19700,14.4
19701,46.9
19702,36.0
19704,4.5
19705,51.3
19707,23.2
19708,28.8
19709,7.1
19711,10.9
19712,16.7
19714,25.8
19716,14.7
19718,33.7
19721,10.8
19722,28.9
19724,11.5
19725,42.9
19726,9.9
19729,14.1
19730,19.3
19731,18.2
19732,5.6
19733,51.9
19734,4.4
19735,14.4
19736,8.6
19737,6.8
19740,3.4
19742,37.4
19743,20.3
19745,26.2
19746,19.8
19747,28.7
19749,26.9
19757,42.2
19758,28.8
19762,49.8
19765,15.3
19766,51.9
19769,4.6
19770,9.6
19771,8.2
19772,46.8
19777,42.9
19779,35.8
19780,49.3
19781,21.7
19782,0.5
19783,5.6
19785,31.7
19787,9.8
19789,42.7
19790,44.8
19792,8.6
19793,54.5
19794,13.6
19797,42.0
19800,3.8
19802,26.3
19803,27.8
19804,31.3
19806,28.8
19807,44.2
19809,43.1
19810,38.6
19811,46.3
19813,47.2
19815,19.5
19818,23.6
19820,39.1
19821,38.5
19823,17.5
19824,50.0
19828,48.6
19831,21.0
19833,50.7
19835,32.8
19836,45.7
19837,7.5
19839,36.6
19843,44.9
19844,-12.4
19851,17.7
19852,26.8
19855,8.1
19857,33.9
19858,48.6
19859,23.6
19861,13.5
19863,49.9
19865,33.6
19866,8.6
19867,15.9
19868,14.3
19869,13.3
19871,44.0
19873,23.5
19874,39.2
19876,8.7
19879,44.6
19881,-2.1
19893,35.6
19894,45.6
19895,49.3
19898,34.9
19900,46.6
19901,37.8
19905,13.9
19906,8.6
19907,28.8
19908,45.7
19909,2.0
19910,23.8
19912,5.7
19914,4.1
19915,9.7
19917,17.7
19919,13.3
19921,30.1
19922,21.3
19923,42.4
19925,35.4
19926,23.0
19928,24.3
19930,45.9
19932,49.3
19933,17.3
19934,36.3
19935,36.6
19938,23.1
19939,47.6
19941,27.3
19943,39.3
19944,21.0
19947,31.6
19949,7.5
19951,5.9
19952,16.2
19953,39.7
19954,38.6
19955,44.5
19956,31.3
19957,38.6
19958,32.0
19959,26.3
19960,27.7
19962,27.0
19966,6.9
19970,10.8
19973,31.7
19977,3.9
19979,42.0
19980,46.8
19981,34.8
19982,-7.2
19983,21.3
19985,14.2
19986,28.2
19988,22.4
19990,27.4
19994,49.3
19995,37.4
19996,38.7
19997,6.4
19998,42.9
20000,19.7
20001,23.0
20005,31.8
20006,26.2
20008,51.7
20010,33.4
20012,35.0
20018,21.1
20019,13.3
20020,51.7
20021,39.9
20022,28.8
20026,10.0
20027,25.9
20030,28.2
20031,2.6
20032,51.9
20033,49.5
20035,37.7
20037,9.8
20039,2.1
20041,33.9
20043,29.7
20044,26.2
20045,35.7
20047,49.2
20049,16.5
20057,28.8
20058,9.7
20059,11.7
20064,12.5
20067,23.0
20069,8.2
20070,2.9
20071,27.8
20073,38.4
20074,37.6
20077,3.4
20078,28.7
20080,0.5
20081,4.5
20083,22.0
20084,24.2
20085,46.2
20086,40.0
20089,31.2
20091,51.9
20093,51.4
20097,20.6
20098,34.1
20099,19.3
20102,16.2
20103,29.4
20104,22.6
20105,31.3
20107,46.6
20108,15.0
20109,26.0
20113,30.2
20117,23.6
20118,49.2
20119,20.9
20120,27.8
20126,22.9
20128,20.6
20129,21.0
20131,45.4
20137,18.9
20140,26.6
20142,-12.4
20147,7.0
20151,23.2
20153,19.7
20155,33.9
20156,4.3
20159,35.4
20160,41.8
20163,43.1
20166,12.4
20167,17.2
20168,13.3
20171,48.3
20175,6.5
20176,4.4
20180,-2.1
20182,33.3
20185,23.9
20186,31.4
20187,9.3
20188,38.0
20190,8.7
20191,28.5
20193,49.3
20195,50.1
20201,23.4
20205,28.8
20206,39.9
20210,12.7
20213,40.5
20215,37.2
20216,26.1
20217,15.9
20218,14.1
20221,35.9
20222,7.0
20223,26.8
20224,29.9
20228,7.4
20230,41.1
20231,49.3
20235,44.0
20236,7.4
20239,16.2
20241,26.0
20243,21.0
20245,9.7
20248,44.6
20250,9.2
20252,35.2
20253,8.9
20255,31.3
20257,20.7
20259,42.9
20260,18.9
20261,3.2
20262,4.9
20265,19.1
20266,31.5
20267,3.6
20268,10.8
20270,51.7
20271,38.0
20273,35.3
20274,31.3
20276,29.5
20277,12.4
20279,44.3
20280,-7.2
20282,22.1
20283,24.9
20287,28.0
20289,25.9
20290,17.5
20292,6.9
20293,46.8
20294,12.7
20295,12.1
20298,41.7
20301,16.1
20303,28.3
20304,40.6
20305,26.2
20306,5.0
20308,3.5
20312,6.0
20313,13.2
20315,9.9
20316,17.4
20317,48.8
20318,13.3
20320,51.3
20323,26.6
20325,50.7
20326,15.9
20327,23.9
20328,30.4
20329,50.1
20330,49.3
20332,22.6
20336,51.5
20338,22.7
20339,21.4
20342,26.2
20346,27.6
20348,26.8
20351,11.7
20352,7.0
20354,32.3
20355,28.8
20357,20.9
20358,9.3
20360,9.8
20361,40.9
20364,33.6
20368,8.2
20369,4.8
20371,10.3
20372,14.5
20374,8.5
20375,46.8
20376,16.3
20378,20.6
20379,-2.1
20380,39.2
20383,24.6
20385,44.4
20388,49.7
20390,11.2
20391,51.9
20392,5.9
20393,20.4
20394,30.2
20395,4.2
20399,15.1
20400,48.2
20401,44.5
20402,10.3
20404,28.8
20409,45.1
20410,46.1
20411,2.6
20413,5.5
20414,22.1
20416,15.9
20417,4.2
20418,29.1
20419,7.7
20420,11.0
20421,31.0
20425,26.4
20426,29.7
20427,40.6
20429,44.2
20431,26.3
20433,32.7
20434,31.2
20438,21.1
20440,11.7
20442,15.9
20443,6.1
20445,9.0
20448,21.5
20449,18.1
20451,29.6
20454,33.9
20457,42.6
20458,44.9
20462,17.1
20466,13.3
20468,9.8
20469,9.2
20470,42.0
20472,15.0
20475,29.8
20476,14.6
20478,-2.1
20481,29.2
20482,21.6
20487,38.2
20491,49.3
20494,14.2
20495,25.1
20501,25.1
20504,31.3
20507,17.0
20511,4.1
20512,49.2
20516,13.3
20518,43.9
20519,45.6
20520,47.7
20521,3.6
20522,9.6
20524,36.0
20527,33.6
20529,49.3
20530,42.6
20531,48.0
20532,41.4
20534,32.2
20536,14.4
20537,30.7
20538,2.3
20540,6.3
20541,21.0
20542,15.2
20545,48.5
20546,41.4
20547,45.7
20548,30.4
20549,39.2
20550,43.5
20552,42.7
20553,31.3
20555,42.2
20559,32.8
20561,38.7
20563,44.3
20564,20.9
20567,10.8
20571,34.9
20572,32.0
20573,46.4
20575,38.3
20577,22.5
20578,29.6
20579,-4.7
20580,40.9
20584,16.5
20585,50.4
20588,13.0
20590,5.9
20591,46.8
20598,6.7
20602,39.8
20603,28.8
20604,27.8
20606,7.5
20607,44.9
20610,44.7
20614,33.7
20615,17.6
20616,10.8
20618,49.4
20619,19.1
20620,6.3
20623,37.2
20626,9.8
20627,33.8
20628,24.2
20629,51.9
20631,31.4
20632,2.1
20634,17.6
20637,3.9
20639,20.1
20641,23.6
20645,2.1
20647,39.2
20648,41.6
20649,42.3
20653,47.1
20654,31.3
20656,24.7
20657,16.8
20659,42.9
20660,24.9
20662,12.6
20663,3.1
20666,10.8
20672,7.2
20673,42.5
20674,19.7
20675,47.5
20676,15.6
20677,25.7
20678,-7.2
20679,49.3
20684,9.6
20685,18.4
20686,50.8
20687,32.0
20689,41.5
20690,44.2
20697,24.7
20699,15.4
20701,13.1
20704,26.2
20706,44.9
20708,48.9
20709,15.3
20711,32.9
20712,31.0
20714,48.1
20715,28.3
20716,8.2
20719,2.2
20720,49.1
20721,14.3
20723,7.3
20724,13.4
20725,39.4
20726,51.9
20727,46.8
20729,16.4
20733,11.3
20734,33.5
20737,50.2
20740,13.3
20743,5.5
20746,43.7
20747,2.8
20748,10.4
20750,40.0
20752,36.5
20753,24.5
20754,13.7
20756,5.3
20757,34.3
20760,4.3
20761,26.4
20762,49.4
20764,14.1
20765,13.3
20766,36.3
20769,3.8
20774,3.3
20776,28.7
20777,-2.1
20781,22.3
20785,18.6
20786,22.4
20787,6.7
20790,49.3
20793,18.1
20798,21.8
20800,21.4
20802,28.8
20804,16.4
20805,5.1
20807,24.0
20809,49.5
20812,22.0
20813,32.0
20814,15.9
20815,45.8
20816,20.9
20819,33.8
20820,31.2
20822,27.9
20826,15.6
20827,14.6
20828,46.8
20829,5.5
20830,2.6
20831,34.5
20832,22.3
20833,7.3
20834,51.4
20838,48.1
20839,24.8
20840,21.0
20842,25.4
20843,39.7
20844,24.2
20845,49.5
20847,40.3
20848,13.1
20849,26.0
20850,30.7
20852,31.3
20856,17.5
20859,11.9
20860,12.1
20861,51.5
20862,3.8
20863,28.4
20865,10.8
20866,7.5
20867,46.2
20869,24.1
20870,30.7
20873,39.9
20874,43.6
20875,51.6
20876,15.9
20877,-4.7
20879,3.2
20880,48.1
20885,15.4
20887,16.7
20889,49.3
20891,49.2
20892,42.5
20897,18.7
20900,31.6
20901,24.4
20902,26.2
20904,13.4
20905,13.7
20907,35.1
20913,17.2
20915,13.3
20921,30.2
20923,22.4
20924,37.1
20927,51.9
20932,19.1
20933,49.0
20934,13.4
20937,51.3
20938,26.0
20939,26.2
20940,36.0
20944,42.9
20946,38.3
20948,20.0
20949,47.3
20952,28.8
20958,45.8
20960,39.9
20962,17.6
20963,36.7
20964,31.3
20965,8.2
20972,11.0
20974,33.3
20975,51.0
20976,0.5
20980,12.7
20983,21.3
20984,7.6
20987,54.5
20989,39.0
20990,25.9
20991,43.6
20992,13.8
20995,51.7
20997,12.8
20998,30.4
21000,28.8
21003,17.2
21008,23.4
21010,47.7
21012,23.6
21013,15.7
21014,26.8
21015,38.1
21016,48.5
21018,11.8
21019,39.3
21020,30.0
21021,19.4
21024,28.3
21025,18.5
21026,44.9
21027,50.5
21030,14.2
21032,33.1
21038,-12.4
21041,45.3
21042,34.9
21044,21.4
21045,24.7
21047,6.6
21048,37.1
21050,51.6
21051,33.9
21054,49.9
21056,15.7
21057,12.0
21058,8.2
21060,40.3
21061,47.9
21063,13.3
21065,21.5
21068,48.9
21069,23.5
21070,20.3
21071,30.0
21073,7.1
21074,45.6
21075,-4.7
21076,43.2
21077,25.1
21080,8.3
21086,46.0
21087,8.1
21088,49.3
21094,8.8
21096,3.2
21097,36.9
21101,28.8
21102,31.4
21107,32.6
21108,48.7
21109,20.5
21113,13.3
21114,15.1
21117,17.1
21120,12.4
21121,31.6
21122,36.7
21123,24.4
21124,7.1
21126,49.3
21127,16.8
21129,50.9
21130,34.3
21131,20.0
21132,2.2
21136,45.7
21138,21.0
21139,32.0
21140,13.9
21142,35.1
21145,25.8
21149,44.0
21150,33.9
21154,7.0
21155,29.1
21158,21.8
21159,49.7
21161,31.2
21162,9.5
21164,10.8
21167,18.1
21168,32.2
21171,44.6
21172,4.7
21174,3.2
21175,48.2
21176,-4.7
21177,21.5
21179,4.7
21180,4.4
21184,6.0
21185,49.9
21187,43.0
21188,46.8
21191,35.4
21200,28.8
21202,39.5
21207,6.2
21210,18.3
21213,13.3
21215,5.7
21217,5.5
21218,31.3
21225,11.6
21226,51.9
21229,14.9
21231,14.6
21235,40.6
21238,26.2
21239,33.2
21242,27.7
21243,9.0
21246,6.4
21250,13.5
21251,28.8
21252,4.3
21253,39.0
21255,27.6
21256,34.8
21258,11.7
21263,8.2
21264,44.7
21266,35.3
21273,20.8
21274,0.5
21276,30.6
21285,51.9
21286,4.6
21294,36.0
21295,49.5
21296,47.7
21299,31.3
21300,43.0
21301,44.6
21302,25.9
21303,11.8
21304,48.6
21309,5.7
21311,26.2
21313,15.2
21315,15.1
21316,8.2
21317,35.8
21319,49.2
21321,25.3
21323,21.0
21334,33.4
21336,-9.8
21337,33.4
21340,22.6
21341,47.1
21344,20.1
21346,17.9
21348,41.6
21352,22.9
21355,32.3
21356,8.3
21358,5.6
21361,21.0
21366,51.6
21367,29.3
21368,45.9
21370,3.0
21373,5.6
21374,12.7
21376,6.1
21378,38.4
21381,21.9
21382,16.4
21383,26.0
21385,51.9
21386,5.2
21389,33.5
21393,50.7
21396,13.2
21397,23.6
21399,3.5
21401,11.5
21402,15.1
21403,7.8
21404,33.4
21407,32.4
21409,31.3
21419,23.2
21420,11.5
21421,47.7
21422,8.2
21423,32.5
21425,5.3
21426,44.4
21428,23.7
21430,2.7
21431,14.2
21433,13.3
21434,3.0
21435,30.9
21438,5.4
21441,30.6
21442,13.4
21445,51.9
21447,11.0
21448,19.2
21450,41.4
21451,28.7
21453,46.3
21454,33.8
21456,22.1
21457,28.8
21458,24.7
21459,7.1
21460,21.0
21464,32.1
21466,25.1
21467,15.0
21470,23.6
21471,44.3
21473,30.4
21475,44.3
21477,10.3
21478,11.3
21479,11.3
21481,32.7
21482,18.5
21483,40.1
21484,14.9
21485,36.2
21488,15.9
21489,50.1
21492,42.1
21495,-12.4
21497,39.3
21498,23.5
21499,37.2
21500,29.1
21501,27.4
21502,45.6
21504,46.2
21505,5.7
21506,41.2
21507,13.1
21508,4.3
21509,36.5
21510,14.9
21511,32.2
21513,28.0
21514,18.0
21516,27.0
21518,6.3
21519,18.7
21520,37.1
21521,13.3
21526,31.7
21528,35.0
21530,36.7
21533,0.5
21535,40.5
21538,47.5
21544,51.9
21549,36.9
21550,10.3
21553,26.1
21554,25.9
21556,32.5
21558,31.3
21561,10.6
21562,19.8
21564,6.9
21565,9.6
21566,37.7
21567,15.3
21570,21.0
21571,21.5
21572,13.8
21576,10.4
21578,22.6
21581,46.3
21582,28.8
21583,50.3
21586,21.8
21589,3.1
21590,9.3
21594,18.2
21595,-7.2
21597,16.8
21598,28.8
21601,2.3
21602,33.1
21605,19.2
21607,39.1
21609,33.0
21611,30.4
21616,26.5
21618,40.5
21619,18.5
21623,38.1
21624,50.5
21626,41.8
21627,11.8
21629,43.5
21631,50.8
21633,3.0
21634,44.6
21635,17.8
21636,19.3
21638,30.2
21641,34.2
21643,9.3
21644,51.9
21646,38.0
21647,15.5
21648,6.3
21649,5.2
21650,35.8
21651,51.4
21655,50.2
21656,28.8
21664,24.8
21666,12.9
21667,28.4
21668,26.2
21673,9.4
21674,19.8
21677,49.9
21678,25.2
21679,23.6
21681,5.6
21682,7.2
21684,20.2
21685,29.8
21686,38.5
21687,10.0
21689,12.4
21692,41.8
21693,-2.1
21694,29.2
21695,20.1
21696,49.8
21702,3.6
21703,49.4
21705,51.9
21707,37.0
21712,30.9
21713,10.3
21715,14.6
21716,33.9
21717,9.0
21718,28.8
21723,25.3
21724,50.1
21725,43.9
21728,10.6
21730,15.9
21731,7.5
21734,46.4
21736,36.1
21739,28.1
21742,46.8
21743,12.1
21745,10.6
21746,24.1
21750,37.8
21751,51.1
21754,21.0
21755,40.1
21759,16.5
21761,19.4
21763,11.2
21764,25.6
21766,2.3
21767,32.9
21768,33.9
21770,44.2
21771,29.5
21773,8.9
21774,25.5
21775,43.5
21776,5.5
21778,36.1
21779,10.0
21780,10.8
21786,32.7
21790,23.5
21792,-4.7
21794,46.4
21796,33.5
21798,18.3
21805,49.3
21809,9.9
21810,38.6
21813,18.4
21814,18.6
21815,36.2
21816,3.0
21817,28.8
21818,49.8
21819,46.3
21820,3.6
21821,7.7
21823,17.2
21824,28.9
21826,14.8
21828,8.4
21829,23.5
21830,13.3
21832,10.6
21835,36.5
21836,2.6
21837,22.9
21840,51.8
21841,8.7
21842,51.9
21847,14.0
21850,3.9
21852,39.3
21853,28.4
21854,2.1
21855,23.6
21860,47.2
21864,35.5
21867,31.3
21869,36.1
21874,45.9
21875,34.0
21877,11.9
21879,8.2
21881,24.8
21882,42.3
21883,30.7
21888,51.0
21889,40.4
21892,0.5
21894,9.1
21895,49.8
21900,3.5
21901,32.3
21902,45.6
21903,54.5
21904,37.5
21906,13.1
21912,23.1
21915,28.8
21916,47.0
21918,23.3
21921,21.3
21927,28.8
21928,29.9
21930,38.3
21932,17.3
21933,14.4
21937,44.9
21940,13.3
21942,14.7
21945,15.9
21947,14.6
21948,49.1
21952,-9.8
21953,21.5
21957,23.8
21958,15.2
21959,25.2
21960,3.5
21965,44.2
21970,29.3
21971,16.5
21973,38.7
21976,29.6
21978,23.6
21979,7.0
21980,38.4
21982,6.7
21986,22.4
21987,9.1
21990,5.6
21991,49.3
21993,43.5
21995,10.5
21998,2.2
22001,49.3
22008,8.5
22011,6.8
22012,19.9
22013,23.6
22015,17.9
22020,2.9
22021,32.5
22022,42.3
22024,32.8
22025,50.9
22027,31.3
22028,22.8
22032,38.5
22033,40.6
22036,8.1
22039,8.2
22040,43.8
22042,37.4
22046,20.6
22050,0.5
22054,36.9
22056,36.8
22057,8.7
22058,41.7
22060,29.6
22061,4.4
22062,54.5
22063,27.2
22065,29.4
22066,51.2
22068,34.4
22072,33.8
22074,28.8
22075,13.8
22076,48.1
22077,39.0
22078,49.7
22079,44.5
22081,17.3
22083,51.8
22085,10.7
22086,26.2
22090,19.0
22091,45.5
22092,11.9
22093,20.2
22094,40.6
22098,6.3
22099,13.3
22101,47.7
22104,40.8
22112,-9.8
22113,42.9
22116,18.0
22117,36.3
22119,43.7
22122,25.2
22124,41.6
22125,37.2
22126,29.6
22127,10.9
22131,4.0
22135,6.1
22136,21.0
22139,24.3
22146,28.6
22147,2.9
22148,13.9
22149,5.6
22150,14.7
22151,50.2
22153,42.1
22160,28.7
22161,46.8
22162,41.9
22163,2.3
22164,40.0
22166,25.5
22168,43.8
22169,23.6
22173,23.6
22174,42.0
22177,44.5
22178,17.5
22180,47.1
22181,10.9
22184,51.6
22185,31.3
22186,13.0
22191,49.9
22192,18.4
22196,36.6
22198,10.8
22202,16.8
22204,38.5
22205,31.8
22207,11.1
22209,18.3
22210,-4.7
22211,41.7
22214,30.2
22215,24.1
22218,24.2
22220,32.0
22222,51.1
22223,49.3
22224,6.4
22226,36.0
22227,41.3
22228,51.5
22233,41.9
22235,13.2
22236,26.2
22237,37.4
22240,39.9
22241,25.4
22242,50.6
22247,24.1
22248,13.3
22251,14.5
22252,40.4
22255,36.1
22256,6.4
22259,21.5
22260,51.9
22262,29.5
22266,50.9
22268,44.4
22272,50.4
22273,26.2
22276,30.5
22278,47.6
22280,3.9
22281,39.8
22283,45.9
22284,35.0
22285,28.8
22286,50.2
22296,11.1
22297,40.8
22298,5.6
22300,12.1
22302,37.5
22303,31.8
22304,20.8
22309,0.5
22311,2.4
22312,27.7
22313,15.6
22314,23.6
22315,39.4
22317,8.5
22320,27.4
22321,51.9
22323,30.9
22324,27.8
22327,32.9
22328,13.4
22329,36.3
22333,31.3
22334,48.0
22338,16.0
22341,47.1
22345,23.6
22346,39.0
22348,39.4
22349,38.5
22351,30.6
22354,39.8
22357,26.0
22358,46.2
22359,23.6
22360,44.3
22366,8.3
22368,7.3
22369,47.3
22371,-12.4
22373,18.4
22374,21.7
22375,4.4
22376,41.2
22378,44.4
22379,12.6
22380,35.8
22382,39.4
22384,33.9
22386,46.1
22388,35.8
22391,46.1
22392,9.3
22393,20.3
22396,13.3
22401,34.1
22405,49.2
22406,45.0
22407,27.6
22409,-2.1
22413,27.6
22416,7.2
22417,40.6
22419,14.9
22421,51.9
22423,13.7
22425,30.8
22426,21.8
22427,14.1
22430,37.6
22431,46.8
22432,2.4
22433,2.2
22434,28.8
22437,13.9
22438,31.4
22439,32.8
22441,51.0
22444,44.5
22445,49.1
22446,34.7
22447,13.3
22452,16.9
22454,15.8
22455,25.1
22458,47.0
22459,49.3
22461,35.0
22462,45.5
22463,17.5
22464,7.5
22465,50.2
22466,24.6
22467,31.1
22471,23.6
22473,43.4
22474,39.2
22477,8.8
22479,34.0
22480,48.3
22483,31.3
22484,16.2
22486,13.6
22490,40.4
22491,43.5
22492,51.7
22495,7.5
22496,21.5
22497,10.8
22498,48.8
22499,38.7
22500,14.5
22503,31.0
22504,48.0
22508,12.5
22509,-7.2
22510,32.6
22511,18.5
22515,33.3
22516,37.5
22517,30.4
22518,4.7
22519,42.6
22520,37.2
22521,46.8
22523,30.6
22524,23.5
22525,27.3
22529,17.7
22531,27.4
22534,26.2
22537,13.1
22539,35.6
22541,18.5
22544,35.3
22546,10.8
22548,41.9
22553,5.6
22555,25.8
22557,17.5
22559,51.9
22560,43.2
22563,51.5
22564,35.9
22565,26.4
22566,49.8
22567,12.5
22570,51.8
22572,26.2
22574,34.6
22578,6.9
22579,36.3
22584,26.2
22585,25.3
22587,49.9
22589,6.7
22590,48.1
22593,33.8
22594,11.7
22596,8.2
22597,34.9
22601,34.1
22602,2.1
22603,27.4
22606,12.9
22607,0.5
22615,31.2
22618,9.4
22619,54.5
22620,11.9
22621,37.6
22626,18.1
22630,2.7
22632,28.8
22636,47.2
22638,22.4
22641,31.4
22643,19.0
22644,23.6
22650,49.7
22651,18.7
22652,40.3
22653,38.4
22654,13.2
22655,40.2
22657,26.2
22658,50.1
22660,48.5
22661,36.2
22663,21.6
22664,11.8
22668,24.9
22669,-12.4
22671,17.7
22673,35.5
22674,18.6
22677,7.9
22678,33.2
22682,33.9
22688,9.8
22689,31.7
22692,4.7
22693,9.0
22695,10.8
22696,8.4
22699,15.4
22700,26.4
22702,16.6
22708,-2.1
22710,41.6
22711,18.5
22717,3.7
22718,14.2
22719,19.8
22720,49.3
22721,20.4
22724,36.7
22726,51.3
22730,4.1
22732,26.2
22733,51.1
22735,3.8
22736,22.6
22737,25.5
22740,5.7
22741,22.9
22745,13.3
22747,17.5
22748,48.9
22751,41.6
22752,30.2
22753,42.0
22758,49.3
22759,42.0
22760,7.6
22763,10.0
22765,29.6
22766,14.5
22768,35.1
22770,21.0
22771,6.7
22773,33.7
22777,25.9
22779,38.6
22781,41.3
22782,31.3
22784,44.1
22787,18.2
22790,23.9
22792,22.3
22793,47.3
22795,10.8
22797,10.4
22800,9.5
22802,50.9
22803,34.5
22806,34.8
22807,-4.7
22809,33.6
22810,20.2
22811,16.8
22812,23.0
22815,36.7
22817,14.4
22818,2.2
22819,49.3
22820,14.8
22821,20.5
22822,42.6
22829,19.0
22830,18.6
22832,8.3
22833,26.2
22834,22.4
22835,37.3
22837,23.4
22841,27.0
22844,26.4
22845,10.8
22848,28.9
22850,42.1
22854,17.6
22857,51.9
22862,41.7
22863,13.6
22868,8.8
22870,26.2
22871,22.5
22873,51.3
22876,30.8
22877,32.0
22881,15.1
22882,28.8
22885,43.2
22886,3.8
22888,28.0
22890,36.7
22892,43.2
22893,22.0
22895,8.2
22900,20.9
22904,35.0
22906,0.5
22907,43.0
22908,9.1
22909,50.0
22912,46.5
22913,30.1
22914,11.2
22918,51.9
22920,36.3
22921,9.5
22922,30.2
22924,20.7
22925,18.9
22926,3.2
22927,7.2
22929,40.7
22930,31.3
22933,3.9
22934,34.2
22938,47.8
22940,3.2
22941,38.1
22942,23.6
22943,49.8
22944,35.9
22946,10.6
22947,4.8
22950,31.2
22956,23.6
22957,12.4
22959,17.5
22961,3.7
22962,23.8
22963,25.8
22968,-12.4
22972,10.2
22973,7.7
22974,11.1
22977,5.7
22981,31.3
22982,34.5
22986,36.3
22987,39.7
22989,42.9
22992,31.4
22993,13.3
22994,33.8
22995,44.0
22996,39.0
22997,9.9
22998,48.0
23001,41.2
23006,-2.1
23010,32.5
23011,7.6
23014,44.5
23018,49.3
23019,13.2
23020,26.0
23022,10.0
23023,48.0
23024,4.1
23025,4.8
23026,30.0
23027,46.2
23028,27.5
23029,34.6
23031,28.8
23038,24.2
23039,16.0
23041,24.7
23042,4.7
23044,15.9
23045,16.3
23047,30.0
23048,26.5
23055,29.1
23056,49.3
23058,46.5
23059,41.5
23060,46.5
23061,48.7
23066,5.1
23068,21.0
23069,11.7
23071,9.9
23075,35.0
23076,43.5
23079,39.4
23080,33.9
23081,3.3
23083,6.0
23084,51.8
23085,23.1
23088,30.8
23089,4.7
23091,16.6
23094,10.8
23096,22.8
23097,23.0
23098,27.2
23100,18.2
23102,39.0
23105,15.5
23106,-4.7
23108,22.4
23111,44.2
23112,22.8
23114,36.6
23115,3.0
23116,23.3
23118,46.8
23121,43.5
23124,15.3
23125,9.8
23126,33.4
23128,47.8
23129,52.0
23131,26.2
23136,10.8
23137,25.1
23138,24.7
