0,139.4
1,172.7
2,129.1
4,120.6
5,147.1
6,132.8
7,154.8
9,207.1
10,139.4
11,122.6
12,157.4
15,170.2
18,127.9
19,90.9
20,88.7
23,134.2
24,123.7
25,86.8
26,190.7
28,86.1
30,120.1
31,92.1
33,167.7
35,138.3
36,119.9
39,141.3
40,179.4
41,163.0
44,142.0
45,126.4
47,98.3
49,137.0
52,148.8
54,167.7
55,176.6
57,175.2
58,94.6
60,182.6
65,152.2
67,140.0
68,126.3
74,119.0
75,165.1
77,184.8
78,154.2
80,105.9
82,117.6
84,197.2
86,157.4
89,106.4
92,123.3
93,143.5
95,149.5
96,157.4
98,108.9
104,96.2
106,152.2
107,108.3
111,90.8
117,142.0
119,182.4
120,169.5
121,111.2
125,163.8
127,199.4
128,207.5
130,139.4
131,135.5
135,84.9
141,136.8
145,141.7
146,149.5
147,102.8
152,165.1
154,198.8
156,88.9
158,183.3
161,142.4
162,141.8
163,144.5
164,81.3
167,187.5
168,136.5
175,162.5
182,121.1
184,88.1
186,162.5
191,103.6
198,144.5
199,137.9
200,119.7
203,122.5
206,165.9
207,200.5
208,174.8
209,144.5
210,142.7
211,184.8
212,146.5
214,93.2
221,139.4
222,153.4
223,94.0
224,135.2
226,142.2
227,118.0
228,193.0
229,144.6
231,175.6
232,170.2
233,137.6
234,129.3
236,101.1
238,185.2
239,156.6
241,88.5
243,152.2
244,120.4
246,107.3
248,131.5
252,156.4
253,154.8
254,162.5
256,195.5
258,161.8
260,135.9
261,206.3
264,124.4
267,157.4
269,159.2
270,154.8
272,182.7
273,169.6
278,144.5
281,94.6
282,149.2
289,142.0
291,152.0
292,142.4
293,155.1
294,149.1
296,110.4
301,131.7
302,201.0
303,172.2
305,101.3
306,171.6
309,150.2
312,165.1
313,133.2
314,147.9
315,197.6
317,102.1
318,118.3
323,147.1
326,116.0
330,201.9
334,180.9
335,152.2
337,118.7
340,177.6
341,197.1
344,167.1
346,174.1
347,149.7
353,155.8
358,142.0
359,136.9
361,152.9
362,194.0
363,187.1
364,195.7
366,122.7
367,172.3
369,144.5
370,125.3
371,147.6
372,202.9
376,176.4
377,189.5
378,86.7
379,98.6
380,129.1
381,137.3
383,155.9
384,175.0
386,159.2
388,196.6
390,189.9
391,189.0
393,167.7
399,186.6
404,157.4
405,118.9
407,150.3
409,163.1
410,197.9
411,138.7
413,90.7
415,154.8
416,81.9
419,122.7
423,155.5
426,118.9
427,154.8
428,205.5
430,200.3
434,185.4
438,144.5
441,182.7
445,183.3
446,106.8
449,149.7
455,144.5
456,193.6
459,148.0
461,134.2
463,130.9
464,148.0
465,90.8
467,174.4
469,163.0
472,107.3
473,170.2
474,145.4
475,177.8
478,190.4
479,94.8
480,90.6
481,111.9
482,208.2
484,160.0
485,143.9
489,150.0
492,115.8
493,199.1
495,152.2
497,154.9
501,195.4
502,82.9
505,183.3
506,144.5
508,165.4
509,192.6
514,189.7
515,154.5
517,190.0
518,131.7
519,188.3
520,137.9
523,155.0
525,128.2
527,99.2
529,192.0
530,147.1
533,200.2
534,156.1
539,108.7
540,182.6
541,126.5
542,91.6
550,187.8
552,160.0
553,120.7
554,145.6
558,177.6
561,178.1
564,154.8
566,140.4
568,177.4
571,179.9
572,167.0
573,105.4
575,149.7
577,167.5
579,82.6
583,176.8
584,95.8
585,111.3
586,142.0
587,156.0
588,81.4
589,204.6
590,149.2
593,190.9
594,208.0
595,120.0
599,131.7
604,164.0
605,121.0
608,95.8
610,152.2
611,174.1
612,85.5
613,87.7
614,149.0
615,187.4
616,183.7
619,191.2
620,173.2
621,144.5
623,85.6
627,122.6
629,194.3
632,172.8
634,118.9
635,172.9
636,106.9
638,89.1
642,124.6
643,170.6
644,165.1
646,182.3
648,144.5
655,152.2
656,129.3
659,132.3
661,199.0
662,90.3
663,169.7
664,146.3
666,157.9
667,142.0
669,153.9
671,107.2
672,111.5
673,160.4
674,171.6
675,161.5
678,134.2
679,150.8
681,206.8
685,207.0
688,189.4
689,135.9
690,160.0
694,127.7
695,204.2
696,138.5
698,112.0
699,164.6
700,191.9
701,142.0
702,186.7
705,111.1
706,143.4
707,104.2
711,125.1
712,165.1
714,194.0
715,93.2
717,117.7
719,131.1
720,168.2
721,85.5
724,154.8
728,97.4
734,146.0
735,111.2
736,139.4
739,143.2
741,139.4
744,191.2
745,150.8
747,131.7
748,134.8
753,179.5
754,129.2
755,80.6
756,198.8
758,126.5
759,118.3
764,147.8
765,129.1
766,113.1
767,88.9
768,171.6
770,157.4
771,133.6
773,84.5
774,93.6
775,209.9
777,140.0
779,203.3
780,162.5
781,144.5
782,106.6
787,149.6
789,186.4
790,199.5
793,160.0
795,133.2
798,114.5
799,206.8
800,205.2
801,84.9
804,152.2
807,167.0
810,151.1
811,97.6
813,207.4
816,136.8
818,81.1
821,98.6
824,134.6
827,134.2
828,134.9
829,201.4
831,146.2
834,93.3
835,162.4
838,136.8
839,167.9
840,138.9
841,148.8
843,155.3
846,157.0
847,183.3
849,172.8
851,200.5
853,154.8
855,154.8
857,85.8
858,144.4
860,113.8
862,154.8
865,178.3
867,199.3
868,191.8
872,161.5
873,160.0
876,170.0
880,80.5
881,102.6
882,145.7
883,179.3
884,152.2
885,116.2
887,159.8
889,139.1
892,115.1
894,121.6
896,136.8
898,204.9
899,94.5
902,171.9
907,136.8
909,188.1
910,179.7
912,149.9
915,196.1
916,97.7
918,131.7
921,143.8
922,139.0
923,195.5
924,82.8
928,205.8
930,170.2
933,184.8
935,204.8
937,208.1
939,182.5
942,152.2
943,178.5
944,189.1
946,186.7
948,180.8
949,179.5
953,157.4
955,84.6
957,119.7
959,107.1
961,145.5
964,152.2
968,148.0
969,88.5
972,144.1
975,144.5
976,151.3
978,137.6
980,177.2
984,205.0
985,108.9
986,110.4
987,147.1
988,132.6
989,178.9
990,138.4
993,187.8
994,92.3
995,173.3
996,158.7
999,139.4
1003,160.9
1004,94.7
1006,203.7
1007,105.1
1008,187.4
1010,175.4
1011,193.5
1012,206.0
1013,104.2
1017,96.6
1018,97.3
1020,114.4
1022,162.5
1023,101.7
1024,85.1
1025,114.1
1026,165.2
1027,102.2
1028,193.1
1034,196.3
1035,142.0
1037,159.5
1038,174.1
1047,152.2
1048,126.3
1049,140.0
1052,81.0
1053,178.5
1058,88.6
1060,149.7
1061,87.4
1062,169.7
1064,169.6
1065,189.1
1066,115.4
1071,153.5
1072,100.7
1073,157.4
1076,128.3
1078,181.5
1079,189.2
1082,163.6
1083,87.7
1085,142.0
1086,142.8
1088,160.1
1096,92.8
1097,129.1
1100,162.5
1101,98.8
1106,177.6
1107,150.7
1109,140.5
1110,162.5
1113,156.4
1114,175.6
1116,141.7
1119,176.8
1120,207.8
1122,157.4
1124,192.5
1125,154.7
1127,106.6
1128,103.1
1129,90.2
1130,144.5
1132,118.8
1133,98.7
1134,117.6
1135,144.5
1138,114.5
1139,195.7
1143,163.9
1145,107.8
1146,134.5
1147,154.8
1149,94.0
1151,187.7
1157,86.7
1158,105.0
1160,144.5
1163,129.7
1165,136.1
1166,169.4
1168,108.0
1169,141.7
1171,99.4
1172,152.2
1174,131.9
1175,170.3
1176,102.1
1178,201.5
1179,99.7
1181,84.6
1182,157.3
1183,181.3
1184,142.0
1185,110.7
1186,196.1
1191,133.8
1194,97.6
1196,154.3
1198,136.8
1199,105.6
1200,204.6
1202,155.8
1203,81.3
1205,140.4
1206,158.6
1207,83.9
1210,170.2
1213,92.5
1214,111.6
1215,123.4
1217,183.7
1218,205.5
1222,154.8
1223,83.4
1225,140.0
1231,160.0
1233,91.6
1234,136.8
1235,177.8
1236,84.5
1237,138.7
1239,100.8
1241,94.2
1243,150.3
1244,129.5
1247,154.8
1250,85.4
1252,146.2
1253,195.0
1256,165.2
1258,144.4
1260,144.5
1261,104.1
1263,83.2
1264,187.1
1271,121.1
1272,147.1
1273,199.9
1274,180.6
1276,176.7
1280,183.0
1284,209.8
1285,134.2
1291,94.4
1294,101.7
1297,118.8
1299,185.0
1301,205.4
1302,141.6
1303,80.8
1306,113.4
1308,111.8
1309,152.2
1310,87.0
1313,207.2
1321,147.1
1324,187.3
1325,178.7
1335,134.2
1340,118.1
1341,182.2
1342,197.3
1344,103.9
1347,152.2
1348,98.7
1350,164.2
1351,82.0
1352,124.5
1354,107.9
1355,156.4
1357,178.2
1358,98.4
1359,136.8
1364,175.2
1366,201.7
1368,175.0
1369,155.8
1372,139.4
1373,119.7
1374,187.0
1375,183.7
1377,141.7
1383,103.4
1384,134.2
1386,160.2
1389,107.1
1390,103.7
1395,163.4
1396,125.9
1397,126.5
1401,92.3
1402,200.0
1405,141.1
1406,90.3
1407,140.5
1408,186.4
1410,162.5
1413,173.6
1414,83.1
1418,206.2
1420,97.4
1421,203.2
1422,144.5
1424,187.5
1425,126.7
1426,150.2
1427,94.6
1429,84.8
1432,93.7
1433,154.7
1434,126.5
1435,94.4
1436,204.2
1441,149.8
1443,199.9
1444,91.8
1446,149.7
1447,184.7
1450,150.3
1455,132.6
1459,178.5
1460,144.5
1461,117.1
1463,158.9
1466,149.7
1467,133.8
1468,142.3
1470,135.6
1472,139.4
1475,194.2
1476,207.5
1477,167.7
1480,96.5
1484,129.1
1488,140.3
1490,209.9
1491,198.0
1492,145.0
1494,115.0
1496,139.3
1497,113.7
1498,83.1
1500,177.4
1506,137.0
1509,147.1
1510,165.5
1512,206.9
1513,207.0
1514,94.2
1516,84.2
1518,117.9
1521,139.4
1522,190.0
1525,97.0
1526,136.8
1528,85.7
1529,132.5
1530,175.8
1531,179.3
1534,123.9
1536,201.3
1537,179.9
1542,202.5
1543,106.2
1544,159.0
1545,174.9
1547,154.8
1551,96.6
1555,105.7
1557,122.4
1558,110.0
1559,144.5
1561,150.2
1562,146.3
1564,115.2
1565,202.8
1567,85.1
1568,100.5
1571,134.2
1572,109.1
1573,205.5
1576,133.3
1577,115.7
1578,104.4
1584,126.5
1585,172.9
1586,81.3
1590,88.6
1591,101.6
1597,126.5
1598,176.7
1599,143.9
1601,202.0
1608,99.3
1609,160.0
1610,81.9
1611,197.3
1614,80.2
1616,107.1
1617,108.3
1618,87.9
1620,82.4
1621,147.5
1622,144.5
1624,112.3
1631,117.9
1632,172.9
1633,132.4
1634,129.1
1635,111.1
1637,94.5
1640,80.6
1641,147.1
1646,154.8
1647,154.3
1649,181.2
1650,209.9
1651,95.8
1653,95.5
1655,183.8
1659,142.0
1660,83.0
1662,204.1
1663,190.6
1665,130.0
1667,177.9
1670,161.6
1671,186.7
1672,136.8
1676,98.1
1677,144.3
1679,201.4
1682,176.5
1683,155.7
1684,129.1
1685,149.2
1686,180.5
1689,174.5
1691,176.2
1693,160.3
1696,118.8
1698,130.5
1700,150.4
1701,175.3
1702,119.0
1703,208.6
1704,203.6
1706,202.6
1709,144.5
1710,192.7
1711,151.2
1712,142.4
1713,113.5
1715,111.8
1717,86.6
1719,199.8
1721,131.7
1723,186.1
1724,206.4
1726,147.0
1728,169.0
1732,112.4
1734,118.8
1735,95.4
1739,92.6
1740,188.6
1741,203.9
1743,90.7
1745,92.5
1746,152.2
1753,194.7
1754,121.4
1758,166.1
1759,147.1
1764,152.2
1770,128.0
1771,131.7
1772,113.7
1773,145.2
1774,178.7
1775,205.2
1777,120.2
1779,206.5
1780,104.6
1781,113.8
1783,126.5
1788,190.2
1789,81.6
1790,127.2
1791,122.1
1793,111.1
1795,133.7
1796,83.9
1797,118.8
1798,121.8
1800,202.6
1809,147.1
1815,158.9
1816,112.5
1817,155.7
1821,139.4
1822,171.5
1824,192.2
1825,136.2
1826,99.3
1828,87.0
1830,87.6
1833,123.9
1834,97.9
1840,194.6
1841,173.7
1842,185.3
1843,171.8
1844,150.1
1846,154.8
1848,91.9
1851,145.9
1854,199.7
1855,164.8
1857,146.7
1858,157.5
1859,142.0
1861,179.7
1863,205.9
1864,99.4
1865,195.8
1866,98.3
1870,149.0
1871,129.1
1872,145.1
1873,89.1
1877,114.1
1880,122.2
1882,97.7
1884,131.7
1885,109.6
1886,198.7
1887,162.8
1889,105.0
1891,120.5
1892,203.6
1893,108.9
1896,126.5
1897,209.4
1905,82.3
1907,118.3
1908,144.5
1913,100.7
1914,92.3
1917,180.3
1920,203.6
1921,134.2
1925,151.7
1926,123.2
1930,151.4
1931,169.3
1934,129.1
1936,202.0
1941,161.7
1945,182.2
1946,162.5
1950,206.7
1957,125.0
1958,154.8
1959,82.3
1960,166.5
1961,196.0
1963,94.9
1968,84.1
1969,140.4
1971,139.4
1977,102.5
1979,87.2
1980,135.4
1983,142.0
1985,83.1
1986,91.1
1988,153.0
1989,147.9
1991,139.6
1996,131.7
1997,83.9
2000,174.0
2001,176.9
2003,102.9
2004,207.9
2005,96.5
2006,175.6
2007,200.3
2009,147.1
2010,135.5
2011,125.6
2013,96.3
2015,165.1
2019,114.4
2021,139.4
2022,149.2
2023,128.7
2024,144.7
2026,135.8
2027,177.7
2032,109.2
2033,129.1
2036,185.9
2041,195.9
2043,198.7
2044,178.0
2045,167.7
2046,120.6
2049,174.3
2050,206.2
2051,119.7
2056,103.1
2058,98.8
2059,157.4
2063,137.2
2064,208.4
2066,190.8
2067,119.0
2068,187.3
2070,83.3
2071,139.4
2072,160.9
2073,123.3
2074,80.9
2077,144.9
2078,176.7
2080,161.4
2082,106.6
2083,149.7
2084,175.1
2085,143.9
2089,99.4
2090,110.5
2091,152.6
2093,134.8
2094,143.9
2096,147.1
2097,133.3
2098,102.0
2099,202.2
2100,178.4
2101,177.4
2102,96.4
2105,139.7
2108,165.1
2109,203.9
2113,131.3
2114,208.3
2115,146.2
2116,190.1
2117,171.5
2119,130.4
2120,149.7
2121,125.6
2125,170.8
2128,132.0
2129,99.8
2131,96.9
2134,136.8
2135,207.9
2137,204.3
2138,160.8
2139,137.5
2144,209.7
2146,178.0
2148,190.8
2149,137.5
2150,191.3
2153,115.0
2157,161.1
2158,175.4
2159,141.5
2165,187.9
2167,166.1
2170,160.0
2171,155.2
2172,163.1
2176,127.0
2178,84.7
2182,206.7
2183,170.2
2186,94.2
2189,146.3
2190,145.1
2191,142.8
2194,119.2
2196,160.0
2197,98.9
2199,110.6
2202,192.3
2208,167.7
2210,185.5
2213,120.0
2215,119.9
2216,134.5
2219,176.1
2220,129.2
2221,154.8
2223,99.8
2225,94.4
2226,91.3
2228,182.8
2230,136.3
2232,112.9
2233,147.1
2234,176.0
2235,126.3
2236,126.4
2237,154.7
2239,102.4
2242,206.1
2244,165.8
2245,185.7
2246,115.9
2250,116.8
2252,186.4
2253,179.6
2254,93.1
2255,172.3
2256,144.1
2257,105.4
2258,172.8
2260,151.6
2263,149.1
2264,140.3
2265,80.3
2266,166.9
2267,110.4
2269,109.3
2271,165.1
2272,168.0
2275,182.6
2276,145.1
2278,192.3
2279,184.8
2281,174.1
2283,178.0
2288,148.7
2290,116.0
2292,184.2
2293,149.8
2295,170.2
2297,209.1
2298,132.7
2299,192.6
2300,82.4
2301,190.1
2302,186.2
2304,209.1
2308,175.4
2309,103.6
2310,100.9
2311,194.2
2313,120.4
2314,165.3
2316,116.3
2317,184.3
2320,165.1
2321,104.2
2322,192.2
2325,95.4
2328,132.2
2333,157.4
2335,120.4
2337,176.7
2339,148.6
2340,80.5
2342,203.0
2343,144.6
2344,93.1
2345,193.4
2346,174.9
2351,193.4
2353,130.1
2354,208.4
2355,106.3
2358,175.4
2359,88.1
2370,162.5
2371,170.9
2372,93.7
2373,138.1
2379,187.6
2382,180.5
2383,161.0
2384,198.6
2389,86.4
2390,91.6
2391,115.9
2394,202.0
2396,178.0
2397,107.3
2398,199.5
2402,141.7
2403,95.2
2406,93.9
2408,180.5
2409,169.7
2410,177.2
2412,156.7
2419,140.7
2420,162.5
2421,164.8
2422,133.9
2424,181.5
2425,93.6
2426,161.9
2427,130.4
2428,200.6
2430,178.9
2433,149.7
2436,202.2
2438,168.9
2439,160.2
2440,177.7
2442,86.6
2444,146.0
2445,188.3
2452,92.8
2458,175.4
2461,164.2
2464,189.9
2468,162.7
2470,157.4
2473,186.8
2475,122.7
2481,127.4
2482,81.2
2483,178.0
2484,95.7
2486,106.8
2488,136.9
2490,109.0
2493,148.9
2494,171.8
2495,172.8
2496,82.9
2498,199.9
2499,152.6
2507,170.2
2508,167.9
2509,188.8
2517,147.9
2518,80.5
2520,157.4
2522,97.9
2529,140.8
2530,178.9
2531,173.0
2533,157.4
2534,140.8
2538,202.9
2544,93.8
2545,193.4
2548,83.6
2551,169.7
2552,94.4
2553,160.0
2555,206.9
2556,100.1
2557,180.5
2558,196.2
2561,168.0
2562,194.3
2565,156.5
2567,208.4
2569,112.7
2570,160.0
2572,143.8
2578,95.7
2579,105.7
2581,124.1
2582,183.1
2584,109.5
2585,138.2
2587,134.5
2590,192.2
2595,183.1
2596,197.0
2600,80.9
2603,183.8
2604,151.1
2606,167.6
2608,180.5
2609,173.1
2610,127.6
2613,125.7
2614,192.7
2615,145.1
2618,81.9
2620,167.7
2622,164.7
2623,167.0
2625,118.1
2626,183.8
2628,97.5
2630,193.9
2631,205.3
2632,154.8
2634,101.1
2636,187.2
2641,130.8
2644,190.8
2648,84.9
2649,209.1
2651,158.3
2652,179.2
2653,151.7
2656,190.1
2657,113.7
2658,175.4
2662,166.6
2664,82.6
2665,184.1
2669,168.7
2670,162.5
2672,126.3
2675,136.8
2676,169.7
2677,112.0
2678,190.5
2679,198.9
2680,127.4
2682,190.8
2684,177.3
2688,194.1
2689,98.5
2693,121.8
2694,175.7
2695,180.5
2696,189.0
2697,196.3
2700,187.0
2702,130.5
2703,80.6
2704,200.6
2705,108.3
2706,127.3
2707,170.2
2710,207.3
2712,204.1
2713,164.3
2714,179.7
2715,196.1
2718,100.4
2719,160.0
2722,190.3
2724,171.4
2731,170.3
2732,160.6
2733,157.4
2735,192.5
2736,155.1
2740,117.5
2741,191.2
2742,145.4
2743,108.7
2744,81.3
2745,190.8
2747,198.7
2748,176.0
2752,158.1
2753,185.2
2757,180.5
2758,185.8
2765,121.1
2769,160.0
2770,109.7
2772,99.2
2773,127.9
2774,89.3
2775,141.9
2777,127.4
2779,185.0
2780,151.5
2782,190.8
2787,130.5
2788,117.8
2789,172.7
2792,111.9
2795,180.5
2796,166.8
2797,201.6
2799,192.1
2801,110.2
2803,151.5
2805,92.2
2806,122.4
2807,172.8
2808,186.6
2811,194.5
2816,115.9
2817,144.8
2819,113.7
2820,167.7
2822,209.2
2823,143.8
2824,186.6
2825,156.1
2827,135.2
2829,204.7
2831,121.6
2832,160.0
2835,112.1
2836,123.8
2842,176.8
2844,188.3
2846,198.9
2847,94.5
2851,151.0
2852,89.9
2853,138.4
2854,144.0
2855,184.9
2856,97.4
2857,172.8
2858,157.0
2860,179.5
2861,144.7
2865,92.8
2868,127.1
2869,100.1
2870,160.0
2873,191.0
2878,163.1
2880,179.1
2882,196.0
2883,185.6
2884,140.0
2888,109.5
2891,129.8
2893,100.0
2894,183.1
2895,182.3
2896,136.6
2897,176.0
2901,208.8
2903,180.3
2904,135.0
2905,140.1
2907,170.2
2908,98.4
2910,126.6
2911,137.4
2914,83.6
2916,106.5
2919,165.1
2920,187.5
2921,140.3
2926,127.0
2927,184.7
2929,178.1
2931,142.5
2932,160.0
2934,209.3
2937,177.8
2938,142.6
2939,173.9
2940,108.1
2941,143.3
2942,119.9
2944,109.7
2945,188.3
2946,82.1
2948,104.1
2949,137.5
2957,178.0
2966,186.8
2969,165.1
2977,189.3
2978,145.4
2980,122.2
2981,201.1
2982,139.7
2983,103.5
2986,86.5
2988,153.1
2990,123.2
2991,180.2
2992,131.3
2994,148.7
2995,185.7
2996,207.6
2997,196.2
2998,104.2
2999,147.1
3000,119.0
3002,85.9
3003,134.2
3004,112.6
3005,81.3
3006,164.9
3007,175.4
3009,129.0
3011,106.9
3014,142.2
3017,88.8
3019,178.0
3020,188.5
3021,106.8
3023,124.0
3025,174.5
3026,205.7
3027,132.1
3028,134.3
3029,98.0
3031,158.5
3032,170.2
3035,108.3
3036,148.8
3039,173.9
3042,188.7
3043,159.0
3044,193.4
3046,132.8
3051,167.3
3054,83.9
3056,114.2
3057,178.0
3061,199.4
3064,148.0
3067,131.1
3068,168.3
3069,165.1
3072,102.9
3076,170.2
3078,181.4
3082,206.3
3084,181.1
3086,113.8
3087,125.1
3088,83.3
3094,196.0
3095,148.2
3098,188.5
3100,180.4
3102,141.7
3103,155.1
3106,180.5
3108,176.5
3109,204.4
3110,122.6
3111,191.0
3112,135.8
3116,113.5
3117,81.1
3119,180.5
3122,104.9
3124,165.3
3125,121.8
3127,138.5
3129,175.8
3130,145.0
3131,194.6
3132,172.8
3133,145.0
3134,124.1
3135,113.1
3136,136.7
3137,90.0
3138,171.6
3140,83.6
3142,188.1
3143,148.5
3144,193.4
3145,99.1
3150,103.5
3151,107.3
3152,132.3
3154,188.8
3155,139.2
3156,180.5
3158,106.8
3160,87.8
3161,102.9
3165,202.7
3166,99.1
3169,170.2
3171,93.4
3173,179.0
3176,188.7
3178,187.9
3181,206.3
3182,164.7
3183,143.7
3184,158.9
3185,205.9
3186,93.9
3187,101.4
3192,181.3
3193,100.5
3194,190.8
3195,194.8
3198,128.4
3200,117.6
3201,188.8
3203,132.5
3204,151.9
3207,172.8
3208,84.2
3209,102.8
3211,93.5
3212,135.2
3213,155.2
3215,107.0
3219,180.5
3220,191.3
3222,103.3
3227,83.8
3228,103.4
3231,170.2
3233,133.7
3235,204.9
3237,153.9
3238,151.4
3239,92.4
3241,207.3
3242,114.6
3244,188.3
3245,168.2
3247,114.9
3249,187.7
3250,87.9
3251,151.0
3252,192.9
3253,138.6
3254,194.9
3255,178.7
3256,199.8
3257,170.2
3262,184.8
3263,90.5
3264,200.1
3265,137.9
3267,181.2
3268,195.5
3269,157.4
3271,169.1
3272,202.4
3273,117.9
3274,105.8
3276,104.0
3277,188.6
3278,103.9
3279,199.2
3280,129.0
3281,190.8
3284,109.1
3286,94.7
3287,185.1
3289,100.8
3290,116.2
3291,137.7
3294,183.1
3297,207.3
3300,199.1
3301,80.7
3303,108.9
3305,153.2
3306,167.7
3307,176.4
3317,178.3
3318,175.4
3320,122.3
3322,87.9
3323,194.5
3327,160.1
3331,159.7
3332,160.0
3339,208.3
3344,170.2
3348,122.3
3350,170.9
3354,108.5
3356,162.5
3360,158.6
3361,96.5
3362,171.1
3365,208.9
3366,144.1
3367,150.3
3368,152.2
3370,91.3
3371,196.3
3373,95.3
3376,130.4
3377,125.2
3381,185.7
3384,86.2
3386,206.7
3389,153.2
3393,135.8
3394,165.1
3398,96.3
3401,136.0
3402,134.6
3406,144.5
3412,131.4
3413,123.0
3414,102.3
3415,192.2
3416,151.9
3417,119.5
3418,207.0
3419,157.4
3420,156.5
3422,114.4
3428,177.4
3430,156.2
3431,152.2
3432,83.0
3433,174.0
3434,145.7
3435,151.0
3436,119.2
3437,80.4
3440,177.3
3443,154.8
3445,209.2
3447,178.0
3448,190.0
3451,82.8
3453,85.8
3454,81.3
3457,139.4
3458,172.9
3459,93.4
3463,204.8
3464,189.8
3469,126.5
3471,157.4
3473,101.6
3475,180.3
3476,197.5
3480,181.0
3481,160.0
3482,202.8
3483,194.7
3485,111.0
3493,152.2
3494,84.2
3495,113.7
3499,154.4
3500,84.5
3502,109.3
3505,196.8
3506,136.8
3508,125.3
3509,105.0
3511,106.8
3513,80.9
3515,101.8
3516,126.5
3518,149.7
3519,85.3
3521,185.2
3526,197.8
3527,184.7
3529,124.7
3531,134.2
3532,206.5
3542,94.8
3544,134.2
3546,195.0
3547,109.4
3550,123.9
3551,122.7
3552,173.3
3556,121.4
3560,196.7
3561,109.4
3566,132.6
3567,145.6
3568,126.5
3569,152.1
3570,152.8
3574,170.4
3576,107.1
3578,105.2
3580,157.4
3582,180.8
3583,105.1
3585,101.1
3587,190.5
3592,131.2
3594,142.0
3597,101.2
3598,135.5
3601,80.9
3606,116.2
3607,149.9
3609,125.1
3613,177.1
3615,150.0
3616,163.9
3617,95.9
3618,136.8
3619,188.1
3620,182.5
3622,177.8
3627,91.8
3628,194.4
3630,87.5
3631,129.1
3632,181.4
3633,177.7
3634,131.1
3635,198.0
3637,159.5
3639,159.9
3641,203.7
3642,95.3
3643,131.7
3645,111.6
3647,144.5
3649,105.8
3653,142.5
3656,118.8
3659,120.2
3662,128.3
3668,108.5
3669,100.8
3670,197.8
3673,129.9
3675,157.4
3678,192.7
3679,163.3
3681,136.8
3682,153.6
3685,197.2
3686,124.4
3688,208.2
3689,92.7
3691,97.2
3693,126.5
3695,131.4
3701,89.9
3703,109.8
3705,111.1
3706,142.6
3709,110.2
3710,132.1
3718,202.7
3719,136.8
3720,191.1
3722,115.6
3723,121.4
3725,166.8
3726,146.1
3727,199.3
3728,112.7
3729,93.4
3731,129.1
3732,197.7
3733,171.2
3734,195.7
3737,135.3
3738,138.3
3743,123.9
3745,179.6
3746,83.4
3748,154.2
3749,100.6
3750,176.4
3751,149.3
3752,114.9
3753,193.7
3754,115.2
3756,108.5
3757,104.8
3759,171.7
3762,88.2
3766,169.8
3768,98.2
3773,191.8
3774,126.1
3778,121.3
3779,136.8
3780,115.2
3781,173.6
3782,98.1
3783,155.6
3786,93.7
3788,110.9
3789,189.4
3791,147.3
3792,134.2
3793,137.4
3795,199.3
3796,139.9
3797,98.2
3799,140.6
3800,206.6
3801,128.7
3804,176.4
3805,116.2
3806,191.8
3808,99.9
3809,92.1
3813,150.9
3814,172.1
3817,123.9
3819,113.1
3820,183.7
3824,121.8
3825,201.1
3826,182.9
3828,156.8
3829,111.1
3830,175.7
3834,206.0
3838,119.3
3840,150.6
3842,121.4
3844,144.0
3847,136.1
3848,162.4
3849,187.8
3853,105.8
3854,107.2
3855,113.7
3860,110.5
3861,102.1
3863,156.6
3866,152.6
3867,108.5
3868,126.1
3871,126.5
3872,160.3
3874,87.4
3875,124.2
3876,173.1
3879,136.8
3881,166.5
3882,204.8
3885,115.7
3886,194.8
3888,123.4
3889,145.4
3892,123.9
3893,182.0
3895,175.6
3897,149.0
3898,187.8
3899,150.4
3900,206.4
3902,121.7
3904,108.5
3905,136.8
3907,183.2
3909,97.5
3910,182.5
3911,82.3
3916,123.9
3917,146.0
3918,131.7
3920,96.3
3923,156.0
3926,101.9
3927,119.7
3929,108.2
3930,118.8
3935,181.4
3937,193.7
3941,175.8
3942,126.5
3944,90.4
3947,156.1
3954,113.7
3955,101.9
3956,100.7
3957,103.9
3958,125.5
3960,178.1
3962,149.3
3964,125.8
3966,103.4
3971,183.5
3978,201.4
3979,136.8
3980,132.7
3985,178.4
3989,208.6
3990,138.1
3992,123.9
3994,151.8
3995,104.5
3997,178.9
3998,194.5
3999,164.0
4001,91.8
4002,202.9
4003,183.1
4004,118.8
4006,111.9
4007,115.6
4008,117.4
4012,154.5
4015,157.2
4016,182.4
4017,136.8
4019,158.7
4020,165.2
4023,131.3
4027,188.1
4029,121.4
4032,137.6
4034,97.5
4035,131.8
4036,114.1
4039,188.0
4040,124.5
4041,123.9
4047,189.1
4050,205.2
4053,127.0
4054,105.2
4055,111.1
4059,88.7
4064,188.7
4066,164.1
4067,105.9
4068,82.4
4069,110.1
4077,89.7
4079,142.0
4080,175.9
4084,91.0
4087,108.5
4091,131.7
4092,128.2
4093,106.1
4094,160.5
4098,97.5
4101,118.7
4103,140.3
4104,111.1
4105,91.3
4107,156.9
4108,129.7
4111,80.8
4112,86.1
4114,205.5
4116,134.2
4117,201.1
4120,98.7
4121,143.2
4125,84.8
4127,132.0
4129,126.5
4133,132.0
4139,200.1
4141,177.3
4142,129.1
4143,188.0
4147,87.1
4154,116.2
4159,206.8
4160,193.1
4166,108.5
4168,130.8
4173,108.4
4174,148.3
4176,202.1
4178,139.4
4181,81.3
4182,154.4
4183,109.7
4188,102.6
4190,115.3
4191,91.7
4192,126.5
4193,187.4
4199,165.7
4200,191.5
4202,167.5
4204,111.1
4205,106.7
4209,192.8
4211,105.8
4212,133.3
4213,81.6
4216,134.2
4217,201.8
4218,160.2
4220,116.8
4227,92.1
4228,136.6
4229,131.7
4230,97.8
4234,106.0
4236,92.9
4237,125.4
4238,197.0
4240,117.4
4241,126.5
4242,199.0
4244,105.6
4245,103.2
4246,141.1
4254,113.7
4255,196.3
4258,148.0
4259,142.0
4260,134.6
4261,199.4
4263,84.1
4264,191.6
4265,107.1
4267,105.9
4269,112.6
4272,118.0
4273,161.1
4274,85.9
4279,139.4
4281,116.1
4282,135.7
4283,89.0
4284,122.6
4285,124.2
4286,146.5
4287,137.4
4288,209.7
4289,188.7
4291,134.2
4292,144.3
4293,160.0
4294,104.5
4297,119.0
4298,103.8
4299,194.7
4301,117.3
4303,116.2
4306,108.5
4307,120.0
4308,180.3
4309,90.1
4311,144.5
4316,139.4
4318,108.5
4321,124.9
4322,181.5
4323,183.5
4324,145.1
4326,130.5
4328,113.2
4329,129.1
4330,154.1
4333,209.7
4334,101.5
4336,193.6
4338,180.5
4339,128.1
4341,126.5
4345,109.3
4346,189.5
4347,97.8
4348,152.7
4350,85.4
4351,169.5
4353,102.5
4354,123.9
4355,147.0
4357,175.4
4359,114.6
4360,164.9
4361,207.3
4364,80.4
4366,111.1
4367,124.1
4368,145.1
4371,123.8
4373,195.1
4378,139.4
4380,142.6
4385,202.7
4389,102.7
4390,130.8
4391,129.1
4392,116.2
4394,121.8
4395,156.7
4397,82.1
4398,183.8
4404,113.7
4405,155.6
4406,108.6
4408,149.4
4411,114.0
4414,135.6
4416,142.0
4422,119.6
4423,190.0
4426,162.6
4428,136.8
4432,175.8
4434,118.2
4440,139.2
4441,123.9
4443,204.3
4445,147.9
4450,115.9
4451,139.4
4454,118.8
4455,131.5
4456,128.8
4459,150.5
4460,138.7
4461,164.7
4463,191.3
4466,105.9
4472,194.2
4474,113.3
4478,136.8
4486,133.8
4487,140.8
4488,168.3
4489,130.4
4490,110.4
4491,131.7
4492,151.9
4493,185.2
4497,205.4
4498,88.7
4499,165.7
4500,194.7
4502,91.3
4503,116.2
4504,128.5
4505,147.3
4510,159.2
4511,84.4
4515,144.5
4516,87.8
4518,138.9
4519,200.2
4520,101.7
4522,189.6
4523,81.4
4525,147.2
4526,123.5
4527,170.7
4528,164.5
4529,131.7
4532,188.9
4534,130.1
4536,117.7
4537,110.7
4538,133.5
4539,194.7
4540,84.3
4541,118.8
4543,196.9
4544,109.6
4547,112.2
4549,114.7
4550,135.2
4553,118.8
4554,146.2
4555,107.5
4557,131.5
4558,163.8
4559,166.6
4562,82.9
4564,132.6
4565,171.1
4566,116.2
4568,195.4
4569,95.6
4571,201.3
4572,103.8
4575,103.8
4576,133.3
4577,191.5
4578,142.0
4580,198.5
4585,163.5
4586,180.9
4590,159.9
4591,126.5
4593,180.2
4600,138.8
4603,108.5
4604,164.1
4605,136.0
4608,108.3
4611,178.8
4612,167.9
4616,142.0
4617,185.1
4618,86.1
4620,141.2
4621,106.7
4622,133.9
4623,119.6
4624,185.7
4626,170.5
4627,170.2
4628,136.8
4629,192.9
4632,145.5
4634,142.6
4636,132.0
4637,176.4
4639,120.9
4640,123.9
4641,209.3
4642,121.9
4643,82.8
4645,167.2
4647,119.3
4649,97.9
4653,187.7
4654,121.4
4655,170.3
4657,87.6
4658,164.2
4665,152.9
4666,111.1
4667,179.4
4668,179.4
4669,150.9
4670,132.2
4671,174.0
4672,83.9
4674,130.8
4677,104.3
4678,136.8
4679,88.0
4681,89.1
4682,179.2
4683,155.1
4685,205.1
4689,196.5
4690,126.5
4694,81.9
4698,104.9
4699,185.2
4700,155.6
4701,179.7
4703,118.8
4706,146.2
4708,160.0
4710,167.5
4711,153.7
4713,149.7
4715,149.7
4716,100.8
4718,95.6
4719,100.0
4721,171.3
4723,205.6
4724,180.0
4726,180.4
4728,139.4
4730,110.3
4731,91.8
4732,175.9
4733,199.9
4734,149.4
4739,186.9
4740,120.0
4741,121.4
4743,114.1
4746,132.7
4752,118.0
4753,126.5
4756,83.9
4759,173.3
4764,156.9
4765,116.2
4768,169.3
4769,166.4
4770,206.4
4771,91.3
4772,180.2
4773,204.5
4774,119.3
4775,208.6
4777,136.8
4781,158.2
4782,82.5
4783,116.7
4785,180.8
4787,159.4
4788,134.4
4789,83.5
4791,131.7
4792,129.4
4793,103.4
4796,160.2
4797,186.5
4798,137.1
4799,80.3
4800,113.6
4801,158.9
4803,113.7
4804,101.1
4805,209.9
4807,110.2
4808,198.6
4810,176.5
4811,116.1
4812,182.2
4813,185.5
4814,170.7
4815,144.5
4817,181.8
4824,170.2
4825,186.9
4826,89.8
4827,174.2
4828,134.2
4829,94.5
4835,141.3
4836,191.8
4838,80.7
4840,121.4
4842,162.4
4844,204.0
4846,115.2
4847,108.8
4849,94.8
4851,194.8
4853,129.1
4855,148.6
4856,192.3
4857,178.6
4859,199.7
4866,118.8
4870,93.4
4871,164.6
4872,112.8
4874,180.4
4875,199.7
4876,165.6
4878,129.1
4880,197.2
4883,165.0
4884,92.1
4887,80.2
4888,202.1
4889,180.7
4890,123.9
4892,94.9
4896,87.1
4898,157.9
4901,100.3
4902,116.2
4903,162.0
4905,85.5
4907,194.4
4910,106.5
4912,146.7
4913,150.1
4915,154.8
4916,147.3
4919,196.8
4921,204.9
4922,88.5
4925,100.7
4927,99.5
4928,139.4
4932,101.5
4937,203.0
4939,151.5
4940,118.8
4942,164.7
4943,180.2
4945,188.3
4947,189.5
4948,122.4
4949,203.0
4953,126.5
4958,165.9
4959,82.5
4960,99.1
4962,146.0
4965,118.8
4966,155.3
4970,124.1
4971,153.4
4972,163.4
4973,140.7
4977,131.7
4983,115.8
4985,89.8
4987,150.2
4988,135.0
4990,118.8
4991,157.0
4993,94.6
4997,158.0
4999,196.3
5000,191.6
5003,116.2
5009,102.3
5011,141.4
5015,149.7
5021,130.9
5027,136.8
5028,82.0
5029,84.3
5030,97.4
5031,82.2
5032,161.2
5033,139.3
5034,162.6
5038,184.6
5039,209.3
5040,118.8
5042,134.8
5045,167.4
5048,194.7
5051,116.5
5052,108.4
5053,134.2
5056,184.4
5060,129.6
5062,164.6
5063,163.5
5064,123.4
5065,123.9
5067,147.8
5068,186.8
5072,143.0
5073,80.8
5075,103.2
5076,175.7
5078,129.1
5082,118.4
5085,166.1
5088,165.5
5089,118.8
5090,116.2
5094,165.5
5097,128.6
5098,133.0
5100,82.4
5101,91.7
5102,116.2
5104,200.4
5114,149.7
5115,204.4
5119,139.6
5120,112.3
5121,103.7
5125,198.2
5128,139.4
5132,154.1
5139,132.7
5140,116.2
5142,186.1
5145,171.5
5146,112.5
5147,129.0
5149,178.9
5152,131.7
5153,80.1
5156,199.4
5158,118.2
5159,128.8
5165,118.8
5170,97.3
5171,179.4
5173,169.7
5177,126.5
5179,85.5
5182,126.1
5183,170.8
5185,135.2
5186,145.2
5187,90.3
5189,149.3
5190,116.2
5191,137.2
5193,127.7
5197,202.4
5199,168.4
5201,206.2
5202,103.4
5203,193.6
5204,187.5
5206,115.4
5207,194.0
5209,146.3
5212,99.1
5213,125.8
5214,173.2
5215,134.2
5217,138.7
5218,144.8
5219,147.3
5221,115.9
5225,172.6
5226,133.4
5227,123.9
5229,209.9
5231,204.9
5233,110.0
5234,85.0
5239,108.5
5245,132.4
5246,140.3
5247,180.8
5250,206.1
5251,133.0
5252,156.1
5253,131.7
5256,96.8
5264,155.6
5265,121.4
5266,153.7
5267,143.0
5268,198.5
5269,195.4
5270,197.7
5272,97.5
5274,86.6
5276,113.4
5277,123.9
5279,158.6
5281,130.3
5284,101.6
5285,133.4
5286,160.6
5289,108.5
5291,81.4
5292,134.2
5293,89.4
5298,139.0
5299,201.1
5300,155.8
5302,98.2
5304,103.0
5310,196.0
5311,129.0
5312,208.1
5313,134.2
5315,198.1
5316,203.2
5317,165.4
5318,100.1
5319,198.9
5320,158.4
5323,203.7
5324,151.3
5326,134.2
5331,108.0
5335,177.7
5339,116.2
5342,175.5
5345,192.5
5346,132.0
5348,146.9
5349,172.3
5351,121.4
5354,138.6
5357,104.3
5358,199.1
5360,136.4
5361,119.1
5362,112.1
5363,105.9
5366,148.3
5367,86.4
5368,203.2
5370,185.0
5375,196.4
5376,121.4
5379,185.7
5381,92.4
5382,106.0
5383,148.6
5385,104.6
5386,179.4
5387,91.0
5389,113.7
5390,208.8
5395,132.3
5397,83.8
5401,103.4
5404,196.6
5409,117.6
5413,134.2
5414,86.5
5416,207.3
5421,170.8
5423,200.9
5424,99.1
5426,123.9
5429,160.2
5430,177.1
5431,88.8
5436,183.0
5438,103.4
5439,176.4
5442,166.0
5445,190.9
5447,193.2
5448,175.0
5449,153.3
5451,116.2
5452,108.3
5455,95.4
5456,106.5
5457,185.5
5460,144.4
5462,99.8
5463,162.6
5464,113.7
5465,150.7
5466,97.2
5467,156.9
5472,150.2
5475,163.8
5476,123.9
5477,188.3
5479,129.9
5480,100.8
5481,182.2
5482,202.2
5486,97.6
5487,198.1
5488,111.1
5489,122.8
5491,206.1
5492,164.4
5495,87.2
5496,103.7
5498,123.8
5499,110.2
5500,95.6
5503,154.1
5504,143.0
5505,135.5
5506,159.1
5507,184.1
5510,160.9
5512,129.1
5513,113.9
5515,197.7
5519,132.1
5522,199.0
5525,121.4
5526,153.9
5528,207.0
5532,181.0
5534,199.8
5536,207.3
5537,111.1
5538,84.4
5539,208.4
5542,128.1
5548,149.4
5550,113.7
5553,194.3
5556,91.1
5558,165.7
5560,112.0
5561,201.6
5562,100.8
5564,138.3
5567,133.1
5570,93.1
5571,148.4
5572,154.3
5574,123.9
5577,207.2
5578,99.9
5579,179.4
5580,199.0
5582,163.5
5583,180.3
5585,190.4
5586,80.9
5587,116.2
5588,112.2
5589,202.1
5597,143.8
5600,103.4
5601,95.7
5602,101.2
5603,109.3
5604,89.4
5606,105.2
5608,165.9
5609,121.0
5610,132.6
5612,134.2
5614,81.7
5615,144.5
5618,144.5
5619,163.5
5622,89.5
5624,121.4
5626,208.8
5627,125.4
5628,109.3
5629,91.2
5631,154.8
5632,166.2
5633,205.6
5637,111.1
5638,99.1
5639,123.4
5640,160.9
5641,188.7
5642,157.7
5644,89.2
5645,105.8
5647,143.0
5650,116.2
5651,107.3
5653,85.2
5654,118.8
5656,103.9
5657,118.2
5658,209.5
5659,115.8
5661,138.3
5662,111.1
5663,151.5
5670,80.0
5671,115.2
5672,136.1
5674,137.7
5675,134.2
5676,204.6
5677,134.1
5682,96.7
5683,109.3
5686,208.2
5687,118.8
5690,200.0
5691,195.0
5692,169.9
5693,141.2
5695,121.8
5697,181.1
5699,103.4
5700,159.1
5701,182.2
5710,161.9
5711,136.8
5712,207.1
5713,169.4
5715,190.9
5717,206.7
5718,91.7
5719,170.4
5721,204.9
5722,101.6
5725,126.5
5726,150.0
5727,125.1
5730,114.8
5731,129.9
5732,206.3
5736,84.8
5737,113.7
5739,185.8
5741,152.6
5745,126.0
5746,80.2
5749,113.7
5751,125.0
5753,176.5
5755,174.8
5756,185.0
5758,121.7
5760,188.6
5762,105.9
5764,113.9
5765,173.4
5766,160.5
5768,167.0
5770,112.4
5772,166.6
5774,121.4
5776,199.8
5780,86.1
5782,143.9
5784,141.5
5785,86.6
5787,108.5
5790,81.5
5793,112.0
5794,187.8
5796,81.6
5798,120.5
5799,98.2
5801,196.1
5802,95.2
5804,115.9
5805,82.4
5807,178.9
5811,126.5
5812,158.5
5815,182.5
5816,151.0
5821,103.2
5822,184.6
5823,121.4
5825,83.1
5826,107.2
5827,129.7
5829,180.0
5834,179.7
5835,113.7
5836,176.0
5839,85.2
5840,146.8
5841,199.0
5842,150.7
5843,131.9
5847,203.3
5848,103.4
5850,161.7
5852,170.1
5853,82.7
5855,137.8
5856,150.3
5857,99.7
5859,121.8
5861,100.8
5864,159.1
5868,123.9
5870,206.2
5871,129.7
5873,131.7
5874,170.0
5875,172.2
5879,106.9
5881,106.5
5884,110.8
5885,121.4
5887,173.7
5891,97.2
5893,87.2
5895,104.7
5898,108.5
5901,208.1
5902,119.0
5903,190.5
5904,145.4
5905,145.9
5906,86.9
5910,134.2
5914,179.9
5915,136.2
5919,85.5
5923,121.4
5926,173.6
5927,158.7
5933,142.8
5934,205.9
5935,157.6
5936,111.1
5939,85.3
5944,168.3
5945,95.3
5946,170.9
5947,92.0
5948,111.1
5949,189.1
5950,186.9
5952,161.8
5955,207.3
5959,192.5
5960,100.8
5963,90.3
5964,106.0
5965,191.3
5968,98.9
5970,130.7
5971,93.0
5972,129.1
5974,123.6
5977,115.8
5984,124.0
5986,118.8
5987,86.1
5990,101.2
5991,131.9
5993,104.2
5994,95.5
5995,157.2
5996,132.4
5997,118.4
5998,100.8
6000,139.1
6001,168.9
6002,208.4
6003,99.1
6004,120.8
6010,129.1
6017,158.1
6019,141.1
6021,80.9
6022,142.1
6023,121.4
6025,115.4
6028,172.5
6030,118.5
6031,174.4
6032,204.6
6034,87.4
6035,116.2
6041,149.1
6042,195.9
6043,180.4
6045,199.4
6046,196.4
6047,113.7
6049,90.4
6051,177.6
6052,117.6
6053,177.0
6055,187.0
6056,154.4
6058,174.8
6059,155.0
6060,134.8
6061,100.8
6064,183.0
6065,184.5
6066,209.7
6067,97.2
6068,133.0
6069,112.3
6070,171.4
6071,154.9
6073,126.5
6074,200.0
6076,127.2
6079,206.9
6081,97.9
6083,130.0
6085,121.4
6087,176.2
6088,119.2
6092,96.9
6093,143.2
6096,152.2
6097,111.1
6098,138.3
6100,108.1
6103,130.5
6105,132.2
6108,123.0
6110,139.4
6113,185.6
6114,131.1
6117,85.4
6118,131.5
6120,136.4
6122,81.1
6123,123.9
6124,85.7
6128,175.0
6129,195.3
6131,91.4
6132,162.3
6135,111.1
6142,114.6
6143,81.0
6147,150.9
6148,111.1
6149,95.7
6150,191.7
6154,156.3
6155,157.0
6157,208.5
6160,103.4
6165,87.6
6168,176.3
6169,163.1
6171,98.6
6172,126.5
6174,97.6
6176,159.1
6178,124.1
6179,169.5
6180,179.8
6185,111.1
6186,139.8
6189,128.2
6191,140.8
6194,157.7
6197,110.1
6198,95.6
6199,94.6
6201,164.4
6202,104.3
6203,131.0
6208,86.4
6209,118.8
6212,173.2
6215,135.9
6218,97.3
6219,205.7
6221,111.1
6223,125.3
6224,185.9
6225,144.1
6229,118.4
6230,121.8
6231,185.5
6234,108.5
6235,207.6
6240,156.8
6246,103.4
6250,97.8
6255,121.5
6257,177.1
6258,205.1
6259,95.6
6261,116.6
6262,117.1
6263,122.8
6264,146.8
6265,96.2
6266,82.1
6269,152.9
6270,134.2
6272,173.4
6283,121.4
6285,157.4
6286,125.2
6287,125.6
6289,107.5
6290,195.2
6291,189.9
6292,179.1
6293,131.8
6294,132.8
6295,105.9
6296,192.7
6299,157.6
6301,169.2
6307,123.9
6312,99.4
6314,144.1
6315,144.4
6316,120.9
6321,118.8
6322,133.0
6323,81.6
6325,206.0
6331,133.1
6332,185.4
6333,126.5
6334,189.2
6335,120.2
6336,135.0
6343,138.2
6345,113.7
6347,118.5
6353,192.3
6354,100.1
6355,134.8
6357,199.8
6358,103.4
6360,82.1
6362,105.6
6363,184.0
6365,88.2
6368,145.5
6369,83.5
6370,134.2
6372,128.7
6373,105.9
6375,80.6
6376,137.4
6377,168.3
6378,162.5
6379,91.7
6382,144.6
6383,126.5
6387,92.2
6388,135.0
6389,125.1
6390,137.2
6392,88.0
6394,96.8
6395,108.5
6396,113.2
6397,89.8
6398,111.9
6399,122.4
6400,137.5
6401,114.5
6402,172.3
6406,205.9
6407,175.1
6408,121.4
6416,127.5
6420,116.2
6423,92.6
6425,185.5
6430,170.3
6431,208.4
6432,116.2
6433,140.8
6434,87.1
6436,173.9
6437,96.0
6439,201.4
6440,90.4
6441,163.6
6442,148.2
6443,154.8
6444,131.7
6445,108.5
6446,205.4
6448,201.8
6449,190.2
6454,132.6
6455,107.9
6456,122.9
6457,195.1
6458,105.9
6459,152.0
6461,105.3
6465,121.9
6466,158.9
6467,114.3
6468,167.2
6470,136.8
6474,139.8
6479,151.1
6480,80.9
6482,126.5
6483,169.3
6484,86.4
6486,104.1
6487,111.6
6488,177.0
6490,142.2
6491,141.6
6493,175.0
6494,150.5
6495,103.4
6496,111.8
6497,80.8
6500,163.5
6504,153.3
6505,101.3
6507,121.4
6508,158.5
6511,136.2
6512,111.4
6513,104.7
6514,186.3
6515,169.7
6520,123.9
6522,158.5
6524,142.3
6526,182.2
6527,97.3
6528,153.5
6529,191.9
6531,117.6
6533,123.9
6534,85.2
6535,192.9
6538,199.8
6540,121.9
6545,108.5
6546,179.2
6548,186.0
6549,201.5
6552,196.5
6554,139.8
6555,160.3
6557,95.6
6560,157.2
6562,104.3
6563,101.5
6565,141.5
6566,110.8
6567,201.3
6568,129.1
6569,100.7
6572,173.7
6573,192.8
6574,164.7
6578,86.1
6579,111.0
6582,123.9
6586,103.7
6587,154.8
6588,112.7
6589,208.9
6590,88.5
6591,160.2
6594,111.1
6597,109.6
6599,183.8
6600,147.1
6601,118.1
6602,107.6
6603,118.6
6604,165.8
6606,116.2
6609,158.6
6612,148.3
6618,195.6
6619,103.4
6623,81.2
6625,167.4
6628,123.1
6630,121.7
6631,118.8
6635,90.9
6636,189.6
6637,169.7
6638,96.5
6641,130.6
6642,198.9
6643,111.1
6645,137.5
6646,136.7
6648,169.7
6650,160.9
6651,106.2
6654,204.7
6655,96.2
6656,80.5
6657,95.6
6658,188.2
6659,182.5
6660,208.0
6661,107.7
6664,100.1
6665,180.5
6666,136.2
6668,126.5
6669,161.3
6671,181.3
6673,198.8
6675,144.1
6676,140.8
6677,108.4
6679,202.1
6680,118.8
6682,133.8
6686,174.4
6690,171.0
6691,84.4
6692,108.5
6697,131.8
6699,200.7
6701,174.9
6705,103.4
6706,83.7
6709,184.3
6712,80.4
6714,152.6
6718,95.6
6720,86.8
6723,129.2
6725,84.5
6726,159.9
6729,126.5
6730,102.0
6732,145.4
6733,119.6
6734,161.9
6735,91.0
6740,187.1
6742,118.8
6745,163.2
6747,182.8
6748,118.7
6749,87.0
6751,196.7
6752,115.1
6753,167.8
6754,105.9
6763,192.9
6764,141.5
6765,178.6
6766,121.4
6769,145.8
6772,135.6
6775,134.6
6777,128.3
6778,108.5
6779,200.4
6780,189.4
6782,135.9
6783,100.8
6787,189.6
6789,111.9
6791,132.6
6792,113.7
6795,184.6
6796,166.1
6799,126.4
6800,190.1
6801,185.2
6803,132.5
6804,100.8
6806,204.2
6809,114.1
6811,133.5
6816,98.2
6819,89.2
6821,154.6
6822,114.7
6823,157.4
6824,163.9
6825,107.2
6828,131.7
6831,148.0
6832,108.3
6839,156.3
6840,118.8
6842,180.1
6843,168.3
6845,177.3
6847,189.0
6848,172.0
6851,189.5
6852,157.8
6853,98.2
6854,90.1
6858,157.8
6861,171.8
6862,135.5
6863,156.6
6864,98.2
6868,160.6
6869,120.9
6873,120.8
6876,87.9
6877,192.7
6878,157.6
6879,184.1
6880,107.0
6883,187.1
6887,121.4
6891,180.8
6893,136.7
6895,108.1
6896,97.1
6897,108.9
6899,113.7
6900,156.8
6902,196.1
6904,93.2
6905,93.1
6906,173.4
6907,156.1
6909,201.5
6912,100.8
6913,149.4
6915,164.6
6916,165.9
6917,198.3
6918,122.8
6919,117.5
6921,201.3
6923,109.6
6924,82.1
6925,100.8
6926,171.0
6931,103.7
6934,138.6
6935,176.4
6936,208.4
6937,90.5
6938,193.8
6939,97.9
6940,105.1
6943,156.9
6945,149.0
6947,199.0
6948,123.9
6949,202.1
6951,119.0
6952,187.5
6953,200.8
6955,101.0
6957,131.7
6958,139.9
6960,145.5
6961,121.4
6962,143.9
6963,190.1
6969,180.7
6970,148.4
6972,198.2
6973,103.4
6974,96.7
6975,138.5
6976,163.6
6977,164.4
6978,87.5
6980,165.4
6984,206.4
6986,121.4
6991,117.7
6994,130.4
6996,86.4
6997,170.7
6999,108.5
7002,208.4
7007,106.0
7009,174.0
7011,105.9
7012,154.8
7013,128.1
7016,119.8
7017,177.2
7020,154.7
7022,149.7
7023,98.2
7027,193.1
7029,115.2
7034,100.8
7037,83.2
7039,168.3
7040,147.0
7041,169.3
7043,161.1
7044,153.8
7046,183.6
7048,131.7
7051,105.1
7053,168.2
7055,111.4
7057,80.5
7060,118.8
7067,160.7
7069,199.4
7070,100.0
7072,103.4
7073,131.3
7074,95.5
7075,189.1
7076,87.7
7081,194.4
7084,134.2
7085,111.1
7086,129.9
7090,97.2
7092,92.9
7094,121.9
7097,111.1
7100,197.1
7102,175.2
7103,169.0
7109,123.9
7110,132.8
7111,116.1
7112,144.9
7117,200.5
7119,203.1
7120,121.9
7122,111.1
7127,177.7
7131,126.6
7132,144.2
7133,93.0
7134,205.6
7135,95.6
7137,113.1
7138,136.0
7139,80.7
7140,86.8
7141,148.1
7143,123.9
7144,182.3
7146,126.5
7147,133.9
7149,149.0
7150,97.3
7151,168.8
7152,126.5
7153,133.9
7154,125.9
7155,122.3
7156,100.0
7158,116.2
7160,195.9
7166,192.0
7167,113.8
7168,180.1
7171,108.5
7172,156.5
7173,141.4
7174,118.5
7176,98.7
7177,190.2
7178,106.2
7179,148.8
7180,198.6
7181,209.8
7184,103.4
7187,82.2
7188,180.8
7193,188.7
7194,186.7
7196,93.1
7198,192.7
7204,174.9
7205,138.8
7207,118.8
7210,204.6
7211,133.1
7212,85.9
7214,160.9
7220,111.1
7221,185.3
7222,114.8
7223,199.1
7224,146.7
7225,133.5
7227,102.5
7230,183.7
7231,123.3
7232,93.1
7233,86.3
7234,159.5
7236,149.5
7240,84.0
7242,159.1
7243,103.4
7247,193.4
7248,177.1
7250,107.6
7255,166.8
7257,100.8
7258,81.6
7259,180.1
7263,162.9
7264,187.1
7265,141.8
7269,118.8
7270,143.0
7271,189.8
7274,186.8
7276,154.9
7277,143.3
7279,189.3
7281,108.5
7284,123.8
7285,99.9
7287,114.9
7288,107.3
7293,100.8
7296,130.6
7298,115.1
7299,81.7
7301,121.3
7302,85.5
7305,106.6
7306,136.8
7307,178.0
7308,129.1
7310,169.9
7312,118.9
7313,146.2
7316,207.9
7317,154.5
7318,144.8
7319,126.5
7320,163.1
7323,109.0
7325,112.7
7326,82.4
7328,123.8
7330,187.7
7331,111.1
7332,179.0
7334,85.9
7336,165.5
7339,136.2
7340,101.9
7341,160.2
7344,113.7
7347,115.1
7348,164.6
7349,185.1
7350,85.8
7352,110.3
7354,91.7
7356,100.8
7358,198.5
7359,158.1
7361,179.2
7363,123.2
7367,116.4
7368,116.2
7369,189.4
7370,82.3
7371,104.9
7375,120.6
7382,108.5
7383,85.3
7384,92.5
7390,176.7
7393,166.4
7394,100.8
7395,141.3
7396,149.2
7397,139.8
7399,159.3
7401,204.2
7402,94.8
7404,120.1
7406,134.2
7411,146.8
7412,135.3
7414,114.7
7416,198.2
7417,147.9
7418,121.4
7419,100.7
7420,80.5
7421,147.9
7422,174.1
7423,189.1
7425,121.6
7429,163.4
7431,103.4
7432,193.6
7433,170.5
7436,184.8
7443,111.1
7448,115.9
7452,154.2
7453,100.7
7455,164.1
7456,111.1
7461,108.6
7463,206.2
7464,135.8
7465,175.8
7467,126.9
7468,151.3
7469,121.4
7472,173.1
7477,178.4
7481,105.9
7483,101.5
7486,134.6
7489,142.5
7490,200.7
7493,98.2
7497,107.3
7500,190.4
7504,129.1
7507,137.6
7509,171.0
7510,129.9
7512,103.6
7513,156.7
7517,165.4
7518,118.8
7519,163.5
7526,168.6
7527,128.3
7530,111.1
7531,207.6
7533,148.9
7535,196.2
7541,179.4
7542,116.2
7543,140.9
7544,145.1
7546,118.3
7551,99.1
7555,98.2
7556,129.6
7558,127.0
7560,124.2
7563,120.6
7564,161.0
7566,129.1
7569,157.2
7573,83.0
7576,134.7
7577,99.9
7578,116.2
7581,97.4
7583,174.2
7584,108.6
7585,141.6
7586,138.5
7587,145.3
7590,155.3
7591,100.8
7592,207.5
7593,194.9
7594,109.6
7597,168.3
7598,154.5
7599,84.7
7601,185.6
7603,179.2
7604,123.9
7607,135.7
7609,187.1
7610,193.5
7611,172.9
7614,161.6
7616,118.8
7617,138.2
7620,167.2
7621,151.8
7623,185.3
7626,208.0
7627,155.5
7628,116.2
7632,171.4
7636,89.2
7637,182.8
7638,134.7
7639,120.8
7640,106.3
7641,105.9
7642,148.2
7643,208.5
7645,194.2
7648,150.8
7649,161.2
7650,85.2
7651,138.8
7654,95.6
7655,107.3
7657,146.8
7658,125.9
7661,88.4
7662,144.2
7663,87.6
7665,129.1
7667,155.5
7668,128.0
7672,208.4
7674,179.1
7676,161.5
7677,123.9
7678,101.8
7679,187.5
7684,107.3
7686,114.3
7687,146.5
7688,133.4
7690,111.1
7692,148.3
7693,192.0
7694,204.7
7695,169.1
7696,131.8
7697,99.6
7699,157.2
7700,168.6
7701,103.5
7702,116.2
7703,201.6
7706,182.2
7708,158.3
7711,162.2
7713,123.4
7715,103.4
7717,91.5
7718,194.2
7719,151.1
7723,100.1
7726,153.7
7728,113.7
7731,182.6
7732,148.0
7735,130.3
7736,165.2
7738,179.1
7739,146.4
7740,105.9
7742,97.4
7744,185.1
7745,164.4
7746,143.5
7748,199.0
7751,130.4
7752,105.9
7756,178.9
7757,205.5
7760,84.8
7761,95.4
7763,139.1
7764,136.8
7766,97.2
7768,142.5
7770,99.1
7771,152.1
7774,130.4
7777,121.4
7779,158.9
7780,110.0
7785,115.7
7787,171.8
7789,166.2
7790,103.4
7791,190.4
7794,166.0
7795,159.0
7796,139.0
7797,86.0
7798,172.8
7800,85.8
7801,143.8
7802,116.2
7804,139.8
7805,159.8
7806,192.1
7808,181.8
7809,192.5
7810,209.6
7815,111.1
7816,104.8
7825,126.1
7827,121.4
7828,138.0
7830,184.0
7832,137.5
7834,176.2
7839,105.9
7841,179.6
7844,189.2
7846,165.6
7848,194.4
7852,93.0
7853,98.2
7854,122.8
7856,162.2
7857,168.6
7862,179.8
7864,129.1
7865,137.2
7867,197.7
7868,126.5
7870,163.7
7874,148.2
7875,160.3
7876,123.9
7877,167.8
7879,176.1
7883,147.2
7884,172.4
7886,116.4
7888,113.7
7893,85.8
7898,127.8
7899,146.2
7900,107.2
7901,113.7
7904,206.3
7905,120.5
7906,120.1
7908,142.8
7910,86.7
7912,199.6
7913,93.3
7914,100.8
7915,99.8
7916,109.5
7917,164.3
7918,122.0
7919,86.4
7920,132.1
7922,208.8
7924,94.8
7926,118.8
7927,161.6
7930,131.2
7932,201.5
7934,149.4
7935,89.7
7937,84.9
7939,108.5
7943,163.1
7944,194.2
7948,138.5
7950,138.0
7951,98.2
7952,86.9
7953,194.7
7954,110.2
7955,206.6
7958,184.6
7961,161.6
7962,121.4
7963,126.4
7964,146.6
7972,114.2
7973,206.9
7974,121.4
7976,154.7
7979,118.1
7980,198.9
7986,208.7
7987,186.5
7988,116.2
7989,135.0
7990,191.3
7991,204.0
7993,185.9
7995,88.6
7996,108.3
7997,97.5
8000,103.4
8001,121.5
8005,108.4
8010,144.8
8011,166.0
8012,93.1
8013,192.9
8015,126.2
8018,202.8
8019,127.6
8021,171.8
8022,100.8
8024,129.1
8025,198.3
8028,167.0
8031,166.1
8032,110.4
8033,146.2
8036,123.9
8038,205.0
8040,180.6
8042,107.1
8044,84.9
8045,153.4
8046,91.5
8047,152.7
8048,199.8
8049,108.5
8050,166.0
8051,163.5
8053,209.5
8055,109.5
8056,102.8
8059,91.8
8061,118.8
8062,191.1
8063,175.7
8064,89.0
8065,125.1
8067,176.1
8071,149.9
8074,105.9
8079,155.8
8080,183.6
8081,83.1
8082,140.7
8083,106.9
8086,116.2
8090,117.9
8091,130.0
8092,141.2
8093,113.1
8094,103.0
8095,95.9
8097,176.6
8098,108.5
8099,154.4
8100,150.8
8104,164.5
8105,199.8
8107,143.3
8110,176.3
8111,103.4
8114,200.0
8115,159.3
8117,135.2
8124,134.2
8126,137.5
8127,123.8
8130,203.3
8133,196.7
8134,90.0
8135,166.4
8136,118.8
8137,132.6
8139,151.7
8140,163.9
8144,202.6
8148,100.8
8150,195.9
8151,92.9
8152,182.4
8153,119.0
8155,115.5
8161,116.2
8162,142.3
8166,170.9
8168,87.6
8170,156.8
8171,186.2
8172,106.4
8173,105.9
8174,143.3
8177,138.5
8178,83.4
8182,209.5
8184,156.9
8186,113.7
8187,173.5
8189,96.3
8190,132.7
8193,166.4
8194,209.6
8199,103.4
8200,206.2
8202,180.2
8208,83.7
8210,99.7
8211,87.9
8215,205.0
8216,162.5
8220,206.0
8221,177.4
8222,123.9
8223,154.8
8224,164.0
8227,130.0
8229,186.5
8231,95.2
8233,195.8
8234,134.0
8235,118.8
8239,138.8
8240,96.0
8242,177.0
8245,208.7
8247,133.8
8248,108.5
8250,203.8
8251,80.2
8255,209.7
8257,177.1
8258,199.0
8260,111.1
8261,116.1
8262,185.5
8266,199.8
8268,97.5
8269,190.4
8270,96.6
8271,168.4
8272,105.9
8273,207.3
8274,114.9
8276,156.5
8278,85.2
8280,197.0
8282,107.1
8285,123.9
8286,136.9
8288,135.0
8289,108.7
8290,134.7
8293,126.6
8294,176.2
8297,113.7
8298,92.2
8300,192.4
8302,159.9
8304,122.6
8308,162.6
8309,95.6
8310,115.9
8312,132.5
8314,115.7
8315,83.5
8316,101.3
8317,111.9
8321,191.6
8322,123.9
8323,88.1
8326,119.5
8327,131.4
8329,126.9
8333,194.6
8334,116.2
8337,98.2
8341,185.2
8343,185.8
8344,94.3
8346,111.1
8347,129.9
8348,143.7
8349,96.7
8350,108.4
8353,153.8
8358,98.2
8367,181.7
8369,126.4
8370,93.1
8373,197.6
8374,129.6
8375,159.6
8376,123.5
8377,155.7
8379,100.5
8380,103.8
8381,169.1
8382,123.9
8383,128.8
8386,194.5
8388,185.5
8389,118.8
8392,85.8
8393,108.1
8394,118.8
8399,191.6
8400,183.1
8403,185.9
8404,122.0
8405,206.5
8406,176.6
8407,105.9
8408,123.5
8410,88.3
8411,173.9
8412,107.1
8413,201.8
8414,205.9
8415,181.3
8417,200.3
8418,113.3
8419,100.8
8421,151.4
8423,142.5
8427,103.5
8428,198.4
8429,109.7
8431,93.1
8435,80.1
8437,140.9
8438,111.4
8439,110.3
8440,112.8
8442,123.9
8444,127.0
8446,129.1
8447,176.1
8449,90.9
8450,169.3
8451,118.0
8453,187.8
8455,99.3
8456,118.8
8458,92.1
8459,113.9
8460,181.6
8461,139.5
8463,147.2
8465,156.7
8466,121.2
8467,88.3
8468,100.8
8469,193.7
8470,81.1
8471,81.8
8474,121.9
8478,111.7
8479,144.4
8480,123.9
8481,136.6
8482,92.3
8489,105.3
8491,170.8
8493,108.5
8495,184.6
8497,145.3
8501,87.8
8502,174.0
8504,149.7
8505,113.7
8507,205.5
8509,91.2
8511,106.8
8513,91.0
8518,108.5
8520,92.0
8521,88.4
8524,109.7
8525,142.6
8526,133.6
8530,105.9
8531,162.1
8535,202.9
8537,81.9
8540,183.8
8541,90.1
8543,136.8
8544,139.3
8545,85.9
8546,167.3
8549,162.0
8552,121.6
8553,119.2
8555,121.4
8558,123.0
8559,139.0
8560,86.9
8562,163.5
8563,164.7
8564,80.3
8565,192.3
8566,186.9
8567,100.8
8570,165.4
8572,111.8
8575,185.1
8579,89.4
8581,123.9
8584,202.5
8586,103.3
8589,176.6
8591,81.6
8592,84.3
8593,118.8
8598,104.0
8599,87.0
8601,204.7
8604,136.1
8605,116.2
8609,123.6
8612,164.1
8613,202.5
8615,198.3
8617,105.9
8619,82.5
8620,122.4
8623,188.0
8624,101.9
8628,176.3
8630,95.6
8633,92.5
8635,182.5
8636,83.6
8638,133.2
8640,84.8
8641,126.5
8642,121.0
8643,113.3
8646,176.0
8647,153.6
8652,82.5
8653,207.8
8654,121.4
8655,132.2
8657,196.1
8663,106.8
8666,176.2
8667,105.9
8668,98.3
8669,97.6
8670,97.8
8672,84.9
8676,208.9
8679,116.2
8680,110.2
8687,207.1
8688,97.0
8691,111.1
8694,166.4
8696,86.1
8698,129.1
8700,165.2
8704,121.4
8706,92.4
8707,166.2
8708,159.8
8710,86.0
8711,89.8
8712,178.6
8715,113.3
8717,105.9
8719,119.9
8720,109.1
8722,93.1
8724,109.6
8725,102.7
8728,103.6
8729,98.2
8730,129.2
8731,206.5
8732,183.6
8735,100.6
8736,175.3
8738,113.0
8740,134.2
8746,188.2
8752,133.5
8753,118.8
8755,116.8
8758,96.4
8759,119.6
8762,145.1
8763,118.8
8765,108.5
8773,184.5
8774,159.2
8776,135.7
8777,80.6
8778,105.9
8779,114.3
8783,146.6
8785,135.8
8787,114.8
8788,176.9
8791,95.6
8792,174.9
8793,155.8
8794,126.4
8796,136.8
8797,139.0
8801,167.1
8802,123.9
8804,161.3
8809,192.7
8810,111.5
8811,166.0
8813,151.5
8814,118.8
8815,161.3
8816,103.1
8819,141.3
8822,110.2
8824,132.6
8826,103.4
8827,180.7
8829,123.5
8830,103.1
8832,129.9
8835,204.8
8836,128.2
8838,123.2
8839,121.4
8841,190.1
8843,114.8
8845,179.3
8849,130.7
8851,100.5
8852,105.9
8853,182.4
8856,193.4
8858,146.4
8860,160.5
8861,134.2
8862,119.0
8863,114.7
8864,103.4
8865,181.8
8869,128.0
8870,112.4
8873,190.4
8874,170.7
8875,100.7
8876,194.2
8877,98.2
8882,181.1
8883,203.4
8885,200.1
8886,131.2
8888,95.6
8891,173.6
8892,166.7
8894,123.9
8896,153.0
8897,170.8
8898,171.0
8899,129.1
8900,133.0
8901,179.0
8903,194.5
8905,155.0
8906,195.5
8910,177.2
8912,118.8
8914,100.0
8915,106.3
8924,198.4
8925,111.1
8926,178.1
8927,130.5
8929,200.1
8932,99.6
8935,93.4
8937,100.8
8940,141.7
8943,100.4
8945,139.5
8946,163.8
8947,201.4
8949,100.8
8961,203.6
8962,131.7
8963,176.8
8964,151.1
8973,109.2
8974,116.2
8975,115.3
8977,202.2
8978,117.3
8982,151.3
8987,98.2
8988,145.0
8989,135.8
8990,166.9
8993,83.4
8994,182.0
8996,131.1
8998,118.8
8999,150.0
9000,118.5
9002,141.2
9003,163.1
9007,160.1
9008,177.8
9010,178.7
9011,108.5
9012,182.4
9014,90.0
9015,92.5
9016,191.9
9018,167.6
9020,145.0
9022,93.2
9023,118.8
9024,196.6
9025,147.0
9027,105.6
9028,140.0
9029,83.8
9030,83.0
9032,184.8
9035,108.5
9036,141.6
9041,129.3
9044,141.3
9045,101.6
9048,187.9
9049,98.2
9050,80.5
9052,92.4
9053,149.7
9056,135.1
9057,142.7
9058,152.0
9060,129.1
9061,172.5
9063,152.3
9072,123.9
9074,98.2
9075,175.1
9079,154.6
9080,95.3
9081,207.3
9084,111.1
9085,207.3
9086,131.8
9089,105.5
9090,179.9
9091,181.8
9092,137.5
9093,103.9
9095,163.5
9096,189.0
9097,116.2
9098,177.3
9099,208.9
9104,162.3
9105,130.5
9106,171.3
9107,124.8
9109,105.9
9111,132.7
9114,199.2
9121,104.9
9122,118.8
9123,94.2
9125,98.0
9126,201.0
9127,191.9
9128,156.5
9129,196.9
9130,81.5
9131,131.4
9132,154.4
9133,145.7
9135,108.5
9141,166.4
9146,209.2
9147,98.2
9151,94.3
9152,163.5
9154,171.3
9158,129.1
9161,129.8
9162,118.0
9164,139.8
9165,160.7
9170,123.9
9171,138.7
9172,167.4
9173,133.5
9175,195.6
9176,109.1
9184,111.1
9185,122.7
9186,158.0
9187,84.3
9188,204.3
9190,94.0
9191,125.5
9193,180.5
9194,83.6
9195,132.2
9196,105.9
9199,173.4
9200,153.8
9201,115.4
9203,156.1
9204,179.0
9207,90.6
9208,95.6
9211,109.4
9215,115.4
9218,115.3
9219,141.9
9220,131.7
9222,166.6
9224,188.3
9225,165.4
9230,106.7
9231,169.1
9232,126.5
9236,149.4
9237,93.1
9238,85.9
9239,153.2
9241,183.6
9242,114.5
9243,174.7
9244,204.2
9245,111.1
9246,192.4
9251,144.2
9257,126.5
9258,108.1
9259,89.6
9260,112.6
9261,150.8
9263,93.5
9266,81.4
9270,118.8
9271,116.8
9272,165.1
9273,156.7
9275,165.5
9278,180.3
9279,86.2
9280,120.5
9281,196.9
9282,126.5
9284,101.0
9285,198.5
9286,99.6
9288,153.0
9293,194.6
9294,116.2
9295,190.9
9296,200.4
9301,132.5
9303,150.8
9305,84.3
9306,205.4
9307,108.5
9309,193.9
9314,158.3
9316,112.0
9317,98.8
9318,204.1
9319,180.1
9320,139.4
9321,113.5
9322,196.4
9325,201.5
9326,119.3
9327,113.9
9330,100.3
9332,126.5
9334,87.8
9336,121.5
9337,89.7
9338,88.0
9340,142.1
9341,208.0
9342,92.5
9343,188.9
9345,105.9
9348,200.7
9352,93.0
9354,199.7
9355,129.7
9357,123.9
9360,90.4
9361,182.3
9362,92.9
9364,171.2
9365,91.2
9367,144.4
9369,113.7
9371,106.4
9372,97.6
9374,171.7
9380,155.8
9382,116.2
9387,120.2
9389,190.2
9391,82.1
9395,105.9
9396,97.6
9397,197.8
9399,167.0
9400,80.6
9401,206.2
9404,147.7
9405,184.4
9407,95.6
9408,91.5
9410,92.0
9412,97.2
9413,149.4
9414,190.6
9415,118.9
9416,97.8
9418,131.7
9419,143.0
9421,170.6
9422,180.4
9424,159.0
9431,126.5
9434,206.1
9435,141.9
9436,146.3
9437,143.8
9439,118.3
9442,135.7
9443,158.7
9444,113.7
9445,111.0
9447,182.5
9448,90.4
9449,199.3
9450,144.9
9454,159.9
9456,116.2
9458,94.5
9459,208.2
9461,95.9
9462,155.1
9465,117.2
9466,112.4
9468,105.9
9469,99.7
9470,125.3
9472,194.0
9473,89.9
9474,110.9
9479,199.6
9481,123.9
9483,108.3
9486,86.7
9488,157.6
9489,136.3
9490,166.0
9491,130.5
9492,132.8
9493,121.4
9496,112.9
9500,124.8
9501,101.7
9503,122.0
9505,108.5
9508,178.5
9509,144.6
9513,120.5
9516,89.8
9517,98.1
9518,127.2
9519,142.0
9520,143.3
9523,185.1
9527,201.5
9528,140.7
9529,150.6
9530,171.6
9531,129.1
9532,115.9
9534,148.3
9536,198.3
9537,135.4
9541,158.6
9543,108.5
9545,145.9
9550,207.7
9552,157.7
9555,113.7
9557,207.6
9559,84.0
9560,93.8
9561,208.8
9565,171.1
9568,111.1
9569,124.3
9571,138.7
9574,202.1
9578,199.2
9579,107.1
9581,123.9
9583,127.3
9584,145.6
9585,195.2
9586,190.7
9588,104.0
9592,163.0
9593,108.5
9594,91.2
9598,100.3
9599,132.5
9600,178.9
9601,127.0
9603,127.7
9606,98.2
9608,113.7
9610,193.6
9615,141.9
9616,166.2
9617,131.7
9620,90.8
9622,191.7
9623,165.0
9625,115.7
9626,189.0
9629,126.5
9630,80.7
9632,186.4
9633,146.2
9641,118.8
9642,204.2
9644,134.7
9651,103.4
9652,85.3
9653,171.1
9655,113.7
9656,137.9
9658,185.0
9660,194.0
9661,80.4
9666,163.0
9667,103.4
9670,185.7
9671,133.2
9677,157.9
9678,167.4
9679,123.9
9682,208.5
9683,184.5
9684,93.0
9685,97.6
9686,98.3
9687,141.3
9688,101.9
9689,145.2
9690,94.5
9691,125.7
9692,113.7
9694,183.1
9699,101.0
9700,109.8
9701,151.8
9704,108.5
9707,103.5
9708,152.3
9713,116.9
9715,149.7
9716,141.2
9717,142.0
9718,192.6
9719,148.4
9720,126.5
9721,158.8
9722,157.4
9725,84.2
9728,115.5
9730,131.7
9734,85.1
9736,177.7
9737,114.8
9738,158.7
9739,95.1
9741,128.5
9742,113.7
9743,181.6
9744,171.6
9745,201.7
9751,125.1
9753,83.9
9754,108.5
9762,190.9
9765,180.7
9766,103.4
9768,105.3
9769,205.7
9770,202.7
9771,200.6
9773,101.4
9775,163.6
9776,157.0
9778,200.1
9780,129.1
9781,81.0
9783,200.8
9787,117.6
9788,163.1
9790,201.7
9792,121.4
9793,126.7
9794,143.6
9795,207.5
9796,157.8
9797,140.4
9798,111.2
9799,96.6
9800,150.3
9802,190.7
9804,103.4
9805,83.1
9809,119.0
9811,160.9
9812,198.3
9813,172.6
9815,122.8
9816,119.2
9817,134.2
9818,159.7
9819,193.3
9821,96.4
9824,179.1
9826,178.9
9827,92.4
9829,136.8
9830,165.3
9833,117.4
9834,152.2
9835,184.0
9840,117.4
9841,121.4
9842,194.9
9843,96.8
9846,84.7
9847,91.1
9849,146.3
9854,123.9
9855,152.2
9856,159.3
9857,82.9
9858,108.9
9860,124.8
9862,207.6
9865,152.7
9866,172.3
9867,116.2
9868,83.2
9870,209.4
9873,140.4
9876,156.1
9877,95.0
9878,99.0
9879,134.2
9880,108.8
9886,165.9
9887,174.3
9889,173.4
9890,112.6
9891,118.8
9893,199.3
9894,111.1
9900,173.7
9902,157.5
9904,103.4
9906,81.8
9910,185.9
9911,151.8
9912,204.5
9915,198.9
9917,139.4
9918,182.0
9919,157.0
9921,119.8
9922,179.9
9926,150.8
9929,134.2
9931,116.2
9934,154.9
9935,175.8
9937,188.4
9940,158.4
9941,135.9
9942,116.2
9943,162.9
9945,169.6
9946,126.7
9951,99.9
9954,118.8
9958,159.0
9959,150.6
9960,81.9
9961,88.7
9965,86.3
9966,103.4
9967,123.1
9968,139.8
9970,110.4
9972,178.3
9973,128.3
9976,196.2
9977,90.8
9978,121.4
9979,121.4
9980,137.7
9981,92.1
9982,108.9
9983,166.3
9986,89.0
9987,156.4
9988,151.7
9989,98.2
9990,108.6
9992,113.7
9993,82.7
9994,116.4
9995,142.3
10000,131.8
10001,159.8
10003,163.2
10004,105.9
10005,190.4
10008,118.4
10010,119.2
10011,180.6
10013,144.9
10016,198.2
10017,136.8
10018,122.0
10019,193.9
10022,81.2
10023,116.7
10024,103.9
10025,176.7
10031,116.2
10032,197.1
10034,102.6
10036,119.2
10038,80.6
10041,84.1
10042,90.4
10044,172.2
10045,95.6
10046,120.0
10051,173.6
10052,124.5
10053,202.5
10054,131.8
10055,94.0
10056,149.5
10057,126.5
10063,121.0
10071,116.2
10080,116.6
10081,204.4
10082,200.7
10083,129.9
10084,100.8
10087,188.4
10088,153.2
10089,129.2
10090,101.1
10091,101.4
10092,138.8
10093,111.1
10095,179.2
10096,108.8
10097,131.7
10099,98.8
10100,183.3
10101,167.8
10103,117.8
10105,103.6
10108,108.9
10109,90.7
10110,163.2
10111,199.8
10112,108.5
10114,98.1
10115,130.3
10116,86.0
10118,82.6
10119,187.7
10122,158.7
10124,131.0
10125,95.6
10126,197.6
10130,169.7
10131,158.0
10137,129.1
10138,137.5
10140,92.9
10141,118.4
10142,100.4
10144,98.0
10145,97.0
10146,119.3
10148,132.9
10150,116.2
10151,150.4
10156,180.0
10157,197.7
10158,126.7
10159,111.3
10160,102.9
10162,132.8
10164,98.2
10166,158.5
10167,141.7
10172,208.8
10176,80.6
10177,129.1
10178,108.8
10179,96.4
10180,126.1
10182,84.3
10183,108.0
10184,189.1
10187,156.2
10188,145.0
10189,119.3
10190,116.2
10195,181.4
10196,186.8
10197,81.0
10199,99.7
10201,134.3
10204,98.2
10207,167.3
10210,86.3
10211,154.9
10213,163.6
10216,136.8
10217,107.5
10219,160.5
10220,143.6
10221,143.3
10222,158.5
10223,80.3
10225,164.0
10228,103.9
10229,123.9
10231,155.6
10234,124.4
10238,92.9
10239,99.0
10241,189.4
10242,129.0
10244,100.8
10246,173.3
10249,116.5
10250,144.0
10251,146.8
10252,127.9
10255,206.1
10256,120.2
10257,131.7
10260,174.5
10261,155.3
10265,160.8
10266,196.8
10268,109.5
10270,116.2
10273,117.1
10275,181.4
10278,174.5
10280,207.1
10281,97.8
10284,100.8
10286,110.5
10287,205.1
10289,164.6
10292,140.9
10294,199.1
10295,149.5
10297,131.7
10300,89.8
10301,123.1
10303,117.7
10304,175.4
10306,188.9
10310,137.7
10311,113.7
10312,181.7
10318,95.4
10319,118.4
10320,178.4
10321,105.5
10322,159.9
10324,100.8
10325,198.6
10326,199.6
10334,167.1
10335,206.6
10338,121.4
10340,135.6
10342,134.7
10343,135.6
10345,87.6
10346,103.0
10347,141.2
10349,196.5
10350,134.4
10351,105.9
10352,96.3
10357,181.9
10359,100.8
10362,91.3
10364,105.9
10370,171.0
10373,121.7
10375,151.2
10378,132.9
10379,118.8
10383,89.6
10384,173.8
10386,87.8
10387,97.2
10388,89.0
10390,94.8
10391,142.2
10392,105.9
10394,151.1
10396,200.6
10397,83.1
10400,161.8
10403,142.1
10404,135.6
10405,105.9
10407,123.6
10408,97.6
10411,105.8
10412,143.2
10413,150.1
10416,156.2
10418,89.3
10419,108.5
10421,97.9
10423,186.4
10424,147.2
10425,117.0
10426,146.6
10427,133.8
10431,198.5
10432,113.7
10435,90.9
10440,117.2
10441,99.8
10443,120.5
10444,82.8
10446,118.8
10448,83.8
10449,177.0
10451,139.0
10452,123.8
10453,198.1
10454,154.1
10455,149.9
10456,198.0
10458,99.3
10459,111.6
10460,111.1
10461,170.6
10463,106.9
10468,113.8
10470,124.8
10473,121.4
10478,165.6
10480,145.3
10481,129.4
10483,159.6
10486,123.9
10487,96.5
10494,142.2
10495,205.4
10497,172.8
10499,93.4
10500,108.5
10503,165.7
10505,106.2
10507,168.8
10508,133.7
10512,154.1
10513,194.7
10514,131.7
10515,124.3
10516,107.3
10517,148.1
10518,85.4
10520,92.8
10522,115.7
10524,193.2
10527,129.1
10528,185.9
10529,184.5
10531,101.3
10532,135.6
10533,118.1
10536,136.0
10537,192.6
10538,194.0
10540,193.3
10541,105.9
10542,127.9
10543,184.7
10545,143.4
10546,209.1
10550,121.1
10551,124.9
10554,129.1
10555,205.1
10556,198.2
10557,143.6
10559,188.5
10560,167.4
10561,120.8
10562,177.7
10565,159.8
10567,118.8
10568,207.1
10569,113.8
10571,137.4
10573,118.2
10577,135.4
10578,101.4
10580,185.8
10581,155.1
10582,105.9
10583,172.1
10584,188.0
10585,82.8
10587,132.9
10590,98.0
10595,142.0
10599,80.8
10601,133.7
10602,96.8
10603,153.8
10604,122.5
10605,149.4
10608,121.4
10610,123.4
10619,94.3
10620,186.4
10621,100.8
10623,87.1
10624,134.8
10625,96.4
10626,138.2
10627,134.3
10628,144.0
10629,157.6
10631,110.1
10633,121.5
10635,129.1
10637,82.8
10640,137.3
10642,181.1
10643,113.5
10644,194.1
10645,192.6
10646,89.5
10647,154.8
10648,119.2
10649,113.7
10650,192.9
10651,165.4
10652,197.1
10653,104.2
10657,182.4
10661,118.1
10662,103.4
10664,144.1
10666,151.5
10668,191.4
10669,201.5
10670,170.9
10674,174.9
10676,129.1
10678,80.8
10680,198.4
10684,206.4
10689,108.5
10690,174.0
10693,140.3
10694,194.0
10695,128.6
10697,192.3
10702,100.8
10704,117.9
10705,165.2
10706,139.7
10707,106.5
10709,164.5
10713,148.9
10715,92.2
10716,138.9
10717,123.9
10718,168.5
10724,203.1
10725,208.1
10726,98.7
10727,111.6
10729,137.8
10730,111.1
10732,175.0
10734,100.3
10735,87.3
10736,153.8
10740,171.4
10741,121.2
10742,173.3
10743,105.9
10744,131.3
10745,132.0
10748,174.9
10749,81.5
10753,105.6
10755,161.9
10757,118.8
10759,167.2
10761,190.3
10763,181.9
10766,185.0
10767,135.4
10768,80.6
10770,105.9
10773,88.8
10774,98.0
10775,183.2
10778,99.7
10780,186.8
10781,189.3
10783,195.9
10784,108.5
10790,173.6
10795,147.3
10797,145.4
10798,118.8
10799,114.9
10800,130.4
10802,112.9
10804,205.4
10807,150.6
10809,106.6
10811,129.1
10812,177.9
10814,135.0
10817,138.7
10818,154.9
10820,83.0
10821,182.7
10822,101.6
10824,121.4
10826,207.1
10827,150.2
10831,132.7
10834,174.1
10838,113.7
10839,163.0
10843,170.7
10845,129.6
10849,190.7
10852,121.4
10853,163.2
10856,112.9
10860,199.3
10865,123.9
10867,195.8
10868,194.0
10869,157.9
10870,83.1
10871,208.1
10872,199.2
10873,116.4
10876,173.0
10878,113.7
10882,86.8
10885,192.7
10886,98.9
10887,160.8
10889,179.3
10890,92.2
10891,153.3
10892,131.7
10893,108.0
10894,86.5
10895,164.9
10898,195.7
10899,80.1
10900,94.1
10901,123.1
10903,130.9
10905,126.5
10909,141.8
10912,182.3
10914,149.0
10915,169.8
10916,172.1
10918,87.8
10919,105.9
10920,194.1
10922,108.2
10923,148.1
10925,146.2
10926,163.1
10930,174.7
10933,134.2
10934,84.6
10936,113.2
10939,88.9
10943,116.6
10946,126.5
10947,115.4
10948,88.3
10954,132.7
10958,196.2
10959,103.4
10961,124.2
10962,169.3
10963,188.4
10964,104.8
10965,162.5
10966,93.4
10967,147.0
10973,134.2
10977,108.2
10978,120.3
10981,121.6
10983,145.7
10985,105.6
10986,161.2
10987,118.8
10989,81.6
10993,199.9
10994,147.1
10995,121.3
10997,116.6
10999,94.3
11000,103.4
11002,189.3
11003,138.6
11004,114.1
11009,91.9
11010,200.5
11014,134.2
11015,84.8
11017,195.5
11020,182.7
11022,165.4
11023,132.6
11024,158.8
11025,170.2
11027,113.7
11030,164.0
11031,106.5
11034,171.2
11035,136.7
11037,93.9
11038,147.1
11039,130.6
11040,207.5
11041,108.5
11044,147.3
11050,134.9
11053,91.1
11054,154.3
11055,134.2
11056,187.5
11057,130.1
11059,126.3
11063,175.7
11067,147.8
11068,113.7
11070,166.3
11072,100.8
11074,88.5
11080,193.1
11081,103.4
11082,173.5
11083,192.4
11086,123.3
11088,207.3
11089,107.0
11092,104.6
11094,126.3
11095,126.5
11096,150.1
11097,156.4
11099,134.9
11100,137.2
11104,99.5
11105,128.1
11106,127.4
11107,111.1
11109,103.4
11115,112.2
11116,165.3
11117,180.2
11118,146.2
11119,116.7
11120,130.4
11122,98.2
11125,165.7
11129,92.3
11132,197.7
11134,123.9
11137,171.1
11142,123.6
11144,85.6
11146,168.6
11147,150.1
11148,111.1
11153,114.8
11157,135.3
11161,103.4
11163,151.2
11166,158.6
11168,107.0
11172,185.9
11175,123.9
11176,180.9
11177,80.8
11181,182.5
11182,124.3
11184,100.5
11188,187.3
11189,103.4
11190,103.2
11191,178.0
11192,135.9
11193,152.8
11194,164.2
11195,113.2
11196,89.1
11198,128.2
11199,176.0
11202,100.8
11203,88.0
11204,121.6
11205,193.7
11208,128.2
11210,119.0
11215,116.2
11216,93.8
11218,111.0
11221,184.5
11222,140.7
11223,104.8
11224,199.0
11225,149.6
11226,153.4
11227,141.3
11229,111.1
11230,195.2
11231,189.5
11232,163.1
11234,179.5
11238,109.1
11239,192.5
11240,189.8
11243,116.2
11244,203.5
11245,183.1
11246,141.0
11249,199.6
11254,203.5
11256,113.7
11257,95.1
11260,194.2
11262,145.2
11265,98.2
11267,96.7
11269,175.2
11270,118.8
11272,164.8
11274,199.8
11278,105.8
11279,181.4
11281,88.0
11282,137.5
11283,121.4
11286,90.8
11287,89.5
11288,187.5
11289,173.1
11290,116.2
11292,105.2
11293,167.8
11294,143.6
11296,111.1
11298,195.5
11308,205.4
11309,125.3
11311,123.9
11319,165.6
11320,190.3
11321,169.9
11323,138.1
11324,118.8
11328,141.1
11332,178.5
11335,188.4
11337,98.2
11339,181.9
11341,197.4
11342,201.5
11345,168.1
11348,155.7
11349,141.7
11350,116.2
11351,128.9
11352,172.3
11353,136.5
11356,180.3
11357,132.3
11359,139.2
11360,118.5
11361,158.9
11362,174.0
11363,118.8
11364,129.1
11366,191.1
11368,105.3
11369,181.3
11370,82.1
11372,159.9
11377,111.1
11382,127.7
11384,101.0
11387,187.1
11388,116.6
11390,126.5
11392,98.0
11395,167.7
11396,168.7
11398,127.4
11400,181.4
11401,161.1
11404,123.9
11407,204.4
11408,103.7
11410,188.9
11417,105.9
11418,155.3
11419,178.8
11424,111.7
11425,161.1
11426,81.7
11427,82.8
11428,170.1
11430,136.8
11431,142.2
11433,111.6
11435,86.5
11436,94.8
11438,144.1
11440,163.3
11443,94.9
11444,198.0
11445,123.9
11447,122.7
11448,176.9
11450,92.5
11452,89.0
11456,172.1
11458,105.9
11459,198.2
11461,134.5
11464,84.0
11466,84.3
11470,132.2
11471,131.7
11473,152.9
11474,173.3
11475,167.0
11476,189.8
11477,198.3
11482,157.7
11485,123.9
11486,192.3
11487,199.4
11488,106.4
11493,121.4
11494,146.0
11496,172.8
11497,126.6
11498,105.9
11500,196.3
11503,158.0
11505,94.0
11506,154.2
11507,141.4
11508,91.9
11509,112.8
11512,134.2
11513,111.5
11518,196.5
11519,145.7
11520,133.7
11526,113.7
11535,162.4
11537,190.9
11538,168.2
11539,95.6
11540,111.2
11541,100.2
11542,194.0
11546,91.9
11547,209.3
11548,144.3
11549,98.0
11551,129.1
11552,165.5
11554,135.0
11556,99.0
11557,147.4
11558,120.3
11561,150.0
11565,116.2
11568,114.3
11570,195.6
11572,197.2
11575,208.5
11576,144.7
11579,95.6
11580,96.7
11582,80.3
11585,185.4
11586,169.6
11588,175.5
11591,129.1
11592,165.5
11593,82.7
11596,130.8
11598,86.5
11600,119.5
11601,177.0
11602,182.7
11603,121.6
11604,113.7
11606,156.6
11607,152.7
11609,123.9
11610,107.1
11612,98.6
11613,194.1
11614,132.1
11615,164.7
11616,174.9
11617,194.3
11618,95.6
11621,170.5
11623,105.8
11626,110.5
11629,196.8
11630,126.5
11631,189.9
11638,198.2
11639,129.6
11640,172.7
11641,188.2
11642,106.1
11643,81.7
11644,121.4
11645,197.9
11646,87.4
11648,84.9
11649,86.8
11650,186.7
11657,156.5
11658,100.8
11659,88.6
11660,137.6
11665,94.8
11666,80.5
11669,202.3
11671,131.7
11675,191.0
11676,149.1
11677,85.8
11679,148.5
11684,113.7
11685,207.7
11691,110.0
11693,170.9
11694,116.2
11698,103.4
11699,123.6
11700,194.5
11702,158.0
11703,103.4
11704,168.8
11705,160.8
11708,109.9
11710,200.1
11711,171.8
11712,134.2
11713,162.3
11715,134.2
11717,91.5
11718,180.1
11720,131.2
11721,149.4
11722,163.6
11725,118.8
11726,146.5
11729,185.4
11730,98.2
11735,97.8
11736,162.6
11737,147.6
11739,100.8
11741,125.3
11743,207.9
11746,178.9
11749,119.4
11750,139.7
11752,126.5
11754,170.7
11755,113.3
11757,139.5
11758,80.5
11760,125.2
11761,173.3
11762,89.6
11765,108.5
11766,187.7
11767,209.7
11769,84.7
11770,125.4
11771,151.3
11772,107.6
11776,181.4
11777,111.8
11780,98.2
11781,192.1
11783,136.2
11784,200.9
11786,158.6
11787,160.4
11789,117.7
11790,98.1
11791,152.5
11792,129.1
11799,208.4
11800,177.1
11803,98.2
11804,134.9
11805,108.5
11806,110.3
11808,209.8
11809,175.3
11819,93.1
11821,126.3
11822,83.7
11825,174.7
11827,132.7
11829,143.2
11830,142.3
11831,123.9
11832,192.7
11835,146.2
11840,142.2
11841,193.1
11842,96.3
11845,108.5
11847,149.0
11855,185.4
11857,108.2
11858,98.2
11859,200.5
11861,136.2
11866,148.4
11867,166.4
11869,126.5
11871,131.7
11872,91.4
11873,165.1
11878,194.3
11879,181.7
11880,101.0
11884,111.1
11886,200.2
11887,102.3
11888,100.7
11889,135.3
11891,136.5
11894,146.9
11895,169.8
11896,81.5
11897,95.6
11898,170.9
11900,105.3
11902,163.7
11904,91.1
11905,131.4
11906,186.2
11907,102.0
11911,126.5
11914,151.5
11916,163.3
11919,167.9
11921,172.8
11922,205.8
11924,118.8
11925,80.1
11926,117.9
11927,155.9
11930,185.1
11931,153.5
11932,93.8
11934,122.0
11935,160.9
11937,100.8
11938,142.4
11939,99.8
11940,122.0
11941,158.4
11945,144.5
11946,118.5
11947,151.4
11951,129.1
11953,104.4
11954,152.4
11955,204.7
11957,149.2
11958,121.2
11959,200.2
11960,199.4
11964,108.5
11967,202.4
11969,117.8
11970,180.5
11974,94.2
11978,93.1
11979,203.1
11982,130.4
11983,142.8
11984,155.8
11986,154.3
11988,203.9
11989,98.1
11990,204.4
11991,131.7
11992,192.2
11993,192.8
11996,125.6
11998,92.1
11999,149.3
12001,90.4
12002,94.8
12003,207.0
12004,118.8
12007,148.3
12011,85.1
12012,193.5
12013,126.9
12017,98.2
12018,85.7
12020,173.4
12024,103.9
12026,115.1
12028,171.5
12029,126.5
12030,103.5
12032,203.2
12035,153.0
12042,195.6
12044,113.7
12045,125.4
12048,140.2
12050,86.5
12051,110.3
12054,82.2
12057,98.2
12058,98.4
12060,105.5
12061,96.1
12064,175.0
12068,99.5
12069,134.2
12070,162.4
12072,88.3
12075,145.9
12080,188.6
12081,84.7
12083,116.2
12086,115.8
12087,154.3
12094,206.0
12096,98.2
12097,132.2
12099,163.6
12101,124.8
12104,209.4
12107,101.1
12109,129.1
12111,190.6
12112,133.0
12116,107.4
12117,95.5
12123,118.8
12125,152.9
12126,130.0
12130,195.2
12133,81.8
12136,105.9
12139,203.8
12140,163.1
12141,82.6
12145,97.7
12146,114.0
12147,102.5
12149,139.4
12150,130.0
12151,172.4
12153,98.1
12156,171.2
12157,154.6
12158,127.3
12159,141.0
12161,183.0
12163,118.8
12166,162.6
12168,209.2
12170,170.6
12171,122.5
12173,194.9
12175,169.7
12176,184.9
12177,98.2
12179,179.1
12180,119.7
12182,203.0
12183,204.9
12187,127.8
12189,129.1
12190,133.0
12195,181.0
12197,144.5
12201,86.5
12203,116.2
12205,129.5
12206,197.4
12207,182.6
12212,127.0
12213,119.5
12214,202.2
12216,100.8
12218,108.5
12220,122.9
12221,88.5
12225,129.5
12229,131.7
12231,135.8
12232,151.4
12236,149.7
12238,187.0
12239,126.0
12241,193.6
12242,105.8
12243,108.5
12244,177.2
12246,114.8
12247,105.8
12248,118.6
12249,176.4
12251,109.7
12257,93.1
12258,202.2
12262,125.9
12263,151.1
12265,135.8
12267,100.8
12268,134.1
12269,131.7
12273,144.3
12276,136.4
12277,130.9
12282,118.8
12283,119.0
12285,120.7
12286,100.1
12287,191.9
12288,185.5
12291,141.5
12292,148.2
12293,80.6
12295,146.0
12296,100.8
12297,159.2
12298,111.7
12299,180.5
12300,164.6
12305,180.3
12310,129.1
12313,159.3
12314,108.4
12316,187.8
12320,112.7
12321,111.7
12322,206.8
12323,108.5
12325,136.0
12327,157.6
12333,123.8
12335,149.6
12337,95.6
12339,126.3
12342,179.2
12343,182.8
12346,121.5
12347,87.7
12348,209.3
12349,131.7
12350,84.1
12351,102.7
12353,115.0
12355,140.3
12358,175.3
12361,81.1
12362,118.8
12364,139.5
12365,116.4
12366,199.3
12367,178.6
12368,178.6
12370,153.7
12373,170.6
12375,138.1
12377,100.8
12378,198.9
12380,143.7
12382,98.4
12384,206.4
12385,120.9
12387,162.5
12389,199.9
12390,123.9
12391,166.7
12394,206.0
12397,80.6
12400,153.1
12402,83.7
12403,105.9
12405,134.8
12407,123.6
12410,209.1
12414,94.3
12415,85.0
12417,98.2
12418,97.2
12419,170.6
12420,80.6
12423,209.0
12424,83.0
12425,104.0
12429,131.7
12432,153.1
12435,120.5
12438,124.6
12439,195.0
12441,98.1
12443,116.2
12444,140.3
12446,114.4
12447,168.9
12448,167.4
12450,110.2
12451,109.1
12456,95.6
12457,143.9
12458,191.6
12459,178.6
12463,104.5
12464,183.7
12467,174.2
12468,93.1
12469,131.7
12470,98.5
12472,165.4
12473,154.9
12474,115.7
12476,193.0
12477,132.1
12478,104.0
12479,139.9
12480,114.3
12481,151.7
12482,116.2
12485,189.3
12486,129.4
12487,103.8
12488,166.8
12490,94.4
12494,86.6
12495,103.4
12496,127.3
12497,109.0
12499,105.0
12506,172.9
12507,125.5
12508,118.0
12509,204.1
12510,131.7
12511,113.7
12516,178.4
12517,207.0
12520,183.8
12522,187.1
12523,113.7
12526,161.4
12527,156.0
12529,122.1
12531,90.2
12533,166.5
12535,200.0
12536,95.6
12538,124.7
12540,126.5
12541,178.3
12547,108.6
12548,139.0
12549,126.5
12550,84.1
12551,179.4
12552,97.6
12554,104.2
12556,189.9
12560,134.0
12562,108.5
12565,106.0
12570,137.5
12572,130.1
12576,100.8
12578,209.7
12580,98.3
12585,91.3
12586,121.3
12587,141.8
12590,129.1
12593,205.2
12594,173.5
12600,179.1
12603,108.5
12604,177.1
12606,178.9
12608,113.5
12609,93.2
12614,177.9
12615,83.7
12616,98.2
12617,113.5
12618,95.4
12620,206.8
12621,165.2
12622,131.0
12623,81.8
12626,160.8
12627,87.7
12628,123.9
12629,154.2
12630,90.9
12636,188.2
12638,111.3
12641,182.7
12642,110.5
12643,111.1
12644,160.4
12645,123.7
12646,89.6
12647,176.8
12648,202.3
12649,120.4
12653,84.2
12654,122.9
12656,103.4
12657,160.0
12658,156.7
12663,98.6
12664,186.7
12667,198.9
12669,126.5
12671,171.5
12675,134.4
12676,109.6
12677,184.5
12678,203.2
12679,203.8
12682,108.0
12683,105.9
12684,181.6
12685,187.6
12688,149.0
12691,152.3
12692,204.4
12693,120.1
12694,124.7
12696,105.9
12701,201.6
12704,165.5
12705,164.5
12706,87.4
12710,121.4
12713,128.0
12715,186.1
12716,132.1
12717,127.6
12718,191.7
12721,98.8
12722,102.8
12723,173.9
12724,113.7
12728,93.9
12729,113.2
12730,141.3
12731,179.7
12734,137.4
12735,140.7
12737,111.1
12739,158.8
12740,88.3
12741,173.4
12743,118.1
12745,83.2
12747,117.1
12748,113.6
12749,196.4
12750,113.7
12752,147.8
12753,171.9
12754,164.1
12755,112.3
12756,194.8
12757,128.4
12758,199.0
12761,91.0
12764,108.5
12765,85.0
12767,164.9
12768,100.4
12770,207.6
12773,142.9
12774,95.4
12775,163.5
12778,113.7
12779,121.7
12780,133.0
12781,168.8
12782,94.9
12784,167.5
12785,140.8
12790,96.4
12791,113.7
12794,197.4
12795,204.8
12799,185.2
12805,126.5
12807,198.3
12809,107.8
12810,101.0
12811,94.5
12812,135.6
12813,169.1
12816,90.8
12817,87.0
12818,121.4
12819,145.4
12820,109.7
12821,160.4
12824,100.4
12825,157.2
12827,112.0
12829,153.7
12831,105.9
12842,89.8
12843,121.9
12844,108.3
12846,126.5
12848,139.9
12850,181.1
12851,94.8
12852,83.5
12853,97.8
12854,146.8
12856,138.7
12857,80.1
12859,123.9
12861,163.7
12862,125.0
12865,157.3
12866,160.4
12867,174.8
12868,128.5
12869,105.5
12871,113.1
12872,108.5
12873,121.3
12875,81.3
12877,208.5
12879,80.8
12882,180.9
12884,129.0
12885,184.9
12886,134.2
12890,111.7
12891,144.3
12897,159.7
12898,195.3
12899,123.9
12903,176.8
12905,120.3
12909,125.0
12912,87.2
12913,108.5
12915,157.3
12921,145.4
12922,138.8
12924,131.6
12926,139.4
12929,110.9
12931,181.3
12932,115.4
12937,158.6
12938,173.4
12939,106.7
12940,126.5
12942,133.1
12944,169.7
12947,168.3
12949,118.7
12951,88.9
12952,172.4
12953,103.4
12955,99.0
12956,182.5
12958,150.4
12959,92.5
12964,89.8
12965,111.7
12966,129.1
12972,151.4
12977,97.2
12978,102.4
12979,86.3
12981,116.2
12982,177.5
12984,93.0
12986,111.8
12990,128.8
12993,93.1
12994,98.2
12995,120.4
12996,99.4
12997,92.8
13002,149.6
13005,151.1
13006,129.1
13009,127.0
13010,110.7
13011,84.1
13013,151.5
13014,105.6
13015,175.1
13018,194.6
13020,113.7
13021,167.4
13022,148.0
13025,174.1
13028,162.8
13031,108.9
13033,93.1
13034,189.3
13037,110.9
13039,153.5
13041,166.8
13042,91.2
13043,202.0
13044,142.3
13046,129.1
13048,111.9
13050,129.4
13055,81.6
13059,177.4
13060,118.8
13063,157.0
13064,119.8
13066,143.2
13069,142.7
13072,86.0
13073,100.8
13076,83.0
13083,96.8
13086,131.7
13087,113.4
13090,173.2
13092,181.5
13099,205.6
13100,113.7
13101,198.7
13102,139.4
13104,136.4
13106,115.0
13107,127.5
13108,183.3
13111,183.3
13112,167.3
13113,188.9
13114,95.6
13118,121.7
13119,103.4
13121,139.6
13125,148.8
13126,129.1
13127,90.5
13129,94.3
13131,181.5
13134,178.0
13138,160.9
13139,118.8
13140,183.8
13141,119.5
13142,113.7
13144,127.2
13148,158.7
13150,98.4
13152,131.4
13153,103.4
13155,124.0
13159,187.0
13161,158.0
13162,139.0
13163,144.8
13165,110.7
13166,126.5
13167,138.0
13168,169.0
13171,95.1
13172,178.2
13174,145.1
13175,134.0
13176,98.4
13177,135.3
13180,108.5
13181,156.0
13185,132.1
13186,97.5
13187,132.2
13188,187.8
13189,200.1
13194,93.1
13198,137.3
13199,108.4
13201,83.3
13204,127.2
13206,131.7
13213,107.0
13214,92.8
13215,150.8
13217,190.8
13219,111.1
13220,142.1
13222,117.2
13224,209.1
13226,101.6
13228,98.2
13229,169.4
13231,200.6
13232,179.0
13233,98.2
13236,117.5
13238,129.5
13244,89.0
13245,118.6
13246,129.1
13251,130.8
13252,129.6
13253,144.3
13254,106.6
13255,108.4
13259,113.7
13261,118.6
13262,168.4
13263,89.3
13264,139.4
13267,181.3
13272,168.9
13273,100.8
13276,102.6
13278,167.2
13280,128.7
13286,131.7
13288,118.4
13289,109.5
13290,158.1
13291,208.7
13292,175.8
13293,106.9
13294,200.0
13296,114.1
13299,113.7
13300,83.5
13303,112.5
13304,120.7
13305,150.0
13306,153.5
13307,157.1
13308,197.3
13311,200.5
13314,100.8
13315,108.1
13316,151.7
13318,181.3
13319,110.1
13323,83.7
13324,150.4
13327,126.5
13328,143.2
13329,158.4
13332,163.3
13334,132.2
13340,111.1
13343,109.5
13345,189.6
13347,179.5
13348,155.0
13353,103.4
13359,103.5
13360,203.8
13362,181.3
13367,126.5
13368,171.9
13369,203.2
13370,94.8
13373,163.7
13374,142.7
13376,87.5
13380,122.9
13381,108.5
13386,109.0
13387,88.4
13388,198.0
13389,86.5
13390,176.6
13391,169.1
13394,103.4
13397,155.3
13398,90.7
13403,138.7
13405,96.7
13407,100.4
13408,116.2
13409,142.4
13415,147.4
13416,82.7
13417,149.7
13421,111.1
13422,138.0
13423,155.8
13425,208.6
13426,132.1
13428,86.9
13432,187.6
13434,108.5
13438,123.5
13439,138.3
13445,159.7
13447,182.7
13449,111.1
13450,174.5
13452,165.3
13453,188.2
13454,142.0
13456,117.0
13457,159.9
13460,161.2
13462,111.1
13464,87.4
13466,101.0
13467,192.9
13469,93.8
13475,111.1
13483,96.2
13486,116.3
13487,191.0
13488,182.8
13489,108.5
13491,208.4
13494,126.3
13495,175.9
13497,151.9
13501,149.5
13502,123.9
13503,93.3
13507,202.3
13508,205.8
13516,121.4
13518,136.2
13519,144.0
13520,162.1
13521,169.0
13523,204.5
13524,171.9
13526,132.8
13527,111.6
13529,209.1
13530,103.4
13531,106.0
13532,92.2
13534,157.5
13535,207.5
13538,127.6
13539,125.8
13542,186.3
13543,126.5
13544,176.8
13545,177.9
13546,93.4
13547,157.6
13548,159.1
13553,108.3
13556,134.2
13560,198.8
13561,145.9
13562,91.5
13563,189.1
13564,107.5
13567,190.9
13571,113.7
13572,172.4
13573,164.3
13574,195.3
13576,87.0
13578,149.0
13579,203.2
13583,170.7
13584,139.4
13587,94.8
13589,106.9
13590,187.0
13596,144.9
13597,121.4
13598,135.4
13602,144.2
13603,104.5
13604,168.8
13608,102.3
13610,130.6
13611,98.2
13612,184.3
13615,169.8
13616,134.8
13621,95.7
13622,188.9
13623,134.2
13637,129.1
13639,90.0
13640,159.8
13642,148.5
13643,114.8
13645,84.8
13646,190.2
13647,120.4
13648,158.3
13649,87.3
13650,105.9
13652,141.9
13653,101.2
13654,126.4
13663,118.5
13664,131.7
13665,147.1
13667,123.3
13668,109.2
13669,170.3
13670,197.5
13675,186.6
13676,110.5
13677,118.8
13678,157.7
13685,156.2
13687,178.6
13688,96.1
13689,142.6
13690,98.2
13692,116.2
13693,175.2
13694,158.5
13695,100.0
13696,198.4
13703,181.0
13704,134.2
13705,196.0
13707,93.8
13708,185.1
13709,89.1
13711,158.0
13713,176.2
13714,121.9
13716,194.5
13717,126.5
13718,88.7
13720,176.1
13722,207.6
13723,203.3
13726,113.0
13728,144.2
13730,103.4
13733,134.7
13734,103.3
13735,201.6
13739,186.5
13740,208.9
13741,171.9
13743,132.8
13744,131.7
13745,84.9
13748,170.5
13750,131.4
13751,154.3
13752,113.9
13754,113.6
13756,187.2
13757,116.2
13758,174.0
13759,152.1
13763,121.4
13764,92.2
13769,130.6
13771,103.4
13772,180.9
13773,158.4
13775,81.1
13779,180.3
13781,141.1
13784,132.0
13785,136.8
13788,166.0
13789,123.9
13791,204.5
13792,86.0
13795,156.3
13796,170.4
13798,116.2
13800,119.8
13803,194.7
13804,155.3
13805,140.4
13806,161.9
13809,198.9
13811,98.2
13812,84.2
13813,208.1
13814,159.5
13818,192.6
13821,171.3
13824,129.1
13825,139.9
13826,162.7
13828,196.0
13829,122.7
13832,202.9
13836,200.3
13838,116.2
13840,134.4
13841,146.1
13842,88.7
13843,106.8
13845,205.2
13847,141.2
13848,201.5
13851,103.4
13852,138.9
13854,142.2
13855,97.7
13857,142.2
13859,109.4
13860,118.2
13862,81.5
13864,131.7
13866,199.6
13867,119.7
13868,164.6
13869,164.0
13873,175.5
13878,108.5
13879,202.9
13880,92.2
13882,160.2
13883,194.3
13886,189.1
13889,109.8
13891,95.6
13893,185.2
13894,133.5
13896,198.6
13897,104.0
13898,110.5
13900,120.6
13901,197.2
13903,92.2
13904,131.7
13907,150.8
13914,164.3
13915,120.3
13916,114.9
13917,118.5
13918,118.8
13922,206.4
13926,193.4
13927,115.2
13931,103.4
13934,167.0
13935,166.9
13938,100.5
13941,116.3
13942,185.1
13944,129.1
13945,178.0
13947,81.0
13948,158.1
13950,137.1
13951,125.6
13952,196.3
13954,91.8
13957,166.9
13958,108.5
13963,146.9
13964,165.5
13965,207.4
13966,134.1
13969,115.6
13970,159.6
13971,154.9
13972,95.6
13977,93.4
13978,144.3
13979,105.0
13981,150.1
13983,171.9
13984,129.1
13988,196.6
13989,140.8
13991,121.6
13994,188.0
13997,97.5
13998,116.2
14003,189.0
14004,208.7
14005,169.0
14007,161.1
14009,146.1
14010,187.2
14011,103.4
14016,130.1
14019,89.9
14020,197.2
14024,123.9
14025,181.4
14029,83.5
14031,106.0
14032,129.8
14034,160.1
14036,103.6
14037,155.1
14038,208.7
14039,105.9
14043,84.6
14046,204.4
14048,111.4
14049,129.7
14050,129.6
14051,155.8
14052,103.4
14055,201.8
14057,135.0
14058,102.5
14065,121.4
14067,101.8
14068,125.1
14072,110.1
14074,129.9
14078,111.1
14080,153.9
14082,92.1
14083,88.5
14084,187.0
14086,181.7
14087,104.9
14091,168.0
14092,108.5
14093,188.7
14096,183.1
14099,181.8
14101,119.7
14102,116.5
14106,113.7
14107,162.0
14108,99.3
14109,80.3
14110,135.2
14112,103.1
14115,176.8
14118,115.1
14119,108.5
14120,104.9
14123,184.8
14125,167.7
14128,150.0
14129,109.9
14130,111.0
14132,107.1
14133,111.1
14138,128.2
14139,202.1
14140,175.9
14142,129.6
14143,197.3
14144,113.1
14145,84.8
14146,108.5
14147,136.5
14148,185.1
14150,185.6
14151,102.8
14153,112.4
14158,153.1
14159,113.7
14160,129.9
14162,160.6
14164,97.4
14166,122.9
14167,82.7
14168,115.0
14169,124.2
14170,188.3
14174,113.7
14175,155.1
14177,125.2
14178,206.6
14179,190.8
14180,162.4
14181,201.7
14183,184.9
14184,208.5
14185,159.1
14186,194.3
14187,105.9
14188,199.8
14189,189.7
14190,192.5
14194,112.3
14196,135.5
14199,197.6
14200,126.5
14203,193.6
14204,134.9
14205,122.5
14206,122.0
14207,92.5
14209,192.0
14211,132.6
14213,85.8
14214,118.8
14215,139.5
14216,184.3
14217,148.0
14218,80.6
14219,179.1
14220,183.8
14221,124.2
14222,97.7
14223,146.1
14226,139.2
14227,95.6
14228,201.5
14232,208.2
14234,176.1
14238,159.4
14240,116.2
14241,132.3
14243,129.0
14246,205.2
14247,135.9
14249,156.6
14250,159.5
14251,113.6
14252,82.1
14253,171.1
14254,118.8
14255,139.5
14260,190.9
14262,163.5
14263,193.4
14264,192.6
14266,136.3
14267,105.9
14268,86.7
14270,190.0
14272,160.8
14274,198.1
14277,90.5
14280,129.1
14281,205.2
14284,107.9
14286,148.1
14287,183.5
14289,203.6
14290,201.2
14291,138.2
14292,123.8
14293,142.5
14294,116.2
14297,126.6
14298,136.2
14302,122.4
14304,164.8
14306,90.0
14307,174.6
14308,95.6
14311,134.9
14320,118.8
14321,82.6
14323,92.5
14326,143.9
14329,118.0
14330,153.2
14331,174.0
14333,126.5
14336,103.5
14341,116.9
14345,107.0
14347,103.4
14351,205.5
14354,159.4
14358,163.2
14359,136.5
14360,126.5
14362,147.2
14363,82.4
14364,206.9
14365,200.4
14366,122.1
14374,116.2
14376,198.2
14377,163.9
14378,181.6
14382,133.1
14383,172.0
14384,182.8
14387,109.8
14388,98.2
14389,124.6
14390,85.9
14392,187.2
14394,177.4
14396,114.4
14397,103.1
14398,152.9
14400,126.5
14402,89.4
14404,188.1
14405,149.8
14406,101.8
14408,123.0
14413,123.9
14415,137.9
14419,119.1
14421,84.3
14422,96.9
14424,87.2
14426,192.1
14427,100.8
14429,191.7
14430,150.1
14433,193.3
14437,209.9
14440,135.6
14441,129.1
14442,102.4
14444,128.9
14449,188.0
14452,146.8
14453,182.6
14454,121.4
14455,161.8
14456,178.9
14460,112.4
14462,164.1
14463,154.5
14464,178.6
14466,132.9
14467,152.7
14468,103.4
14473,86.7
14474,130.1
14476,122.0
14477,125.6
14478,82.5
14479,189.2
14481,131.7
14486,82.8
14492,90.3
14493,179.3
14494,116.2
14495,137.1
14496,155.2
14497,158.1
14503,90.9
14505,184.8
14507,164.3
14509,95.6
14510,80.2
14511,118.2
14513,199.7
14517,191.8
14519,99.2
14521,126.5
14522,192.9
14525,172.1
14526,139.8
14528,148.1
14530,178.7
14531,86.3
14534,113.7
14535,108.1
14537,122.6
14539,99.1
14540,202.9
14541,177.2
14542,108.0
14543,119.5
14545,116.6
14546,161.8
14547,103.4
14551,113.6
14552,146.1
14555,157.7
14557,177.1
14560,173.4
14561,129.1
14565,110.2
14567,149.8
14570,167.7
14571,99.6
14573,108.9
14575,111.1
14576,137.2
14586,134.8
14587,142.0
14588,95.6
14590,189.5
14593,197.3
14600,138.3
14601,131.7
14605,108.6
14607,96.1
14609,138.0
14610,116.4
14613,126.5
14614,116.2
14617,140.0
14618,135.6
14623,167.8
14624,195.7
14625,130.5
14627,103.4
14628,202.6
14629,137.8
14630,120.7
14631,85.3
14634,159.9
14636,198.2
14637,198.9
14640,158.7
14642,129.1
14643,185.8
14644,114.4
14646,144.5
14647,180.5
14651,128.7
14652,115.4
14653,117.3
14654,111.1
14655,111.1
14657,117.1
14659,145.3
14660,123.5
14665,156.4
14666,190.3
14668,98.2
14669,138.0
14672,139.8
14676,113.0
14677,187.4
14680,83.6
14681,131.7
14683,177.9
14686,111.2
14688,130.6
14689,134.6
14690,141.8
14691,83.3
14694,116.2
14695,193.4
14697,82.9
14699,192.7
14700,134.8
14707,126.1
14708,95.6
14710,120.1
14711,137.9
14718,106.0
14720,91.5
14721,126.5
14722,121.2
14723,141.3
14726,107.0
14727,181.0
14728,87.7
14729,156.5
14732,182.5
14733,163.6
14734,113.7
14735,86.0
14736,190.6
14738,176.0
14741,183.5
14743,128.4
14745,126.4
14746,145.8
14747,95.6
14748,111.5
14749,117.8
14752,114.2
14753,111.7
14755,207.8
14757,184.1
14759,129.1
14761,165.1
14762,134.9
14764,112.0
14769,204.0
14770,198.8
14771,192.4
14774,118.8
14777,96.9
14782,133.5
14785,207.9
14786,162.1
14787,98.2
14789,199.0
14793,167.2
14797,81.8
14798,204.5
14799,126.5
14803,113.8
14806,83.8
14808,209.9
14813,116.2
14816,175.8
14824,89.1
14825,175.6
14826,98.2
14827,185.9
14833,156.0
14836,178.0
14837,127.0
14839,131.7
14840,134.8
14847,90.2
14849,169.6
14851,157.7
14853,121.4
14855,153.8
14858,175.6
14860,188.4
14861,209.2
14865,91.3
14866,95.6
14867,93.2
14868,195.3
14871,145.3
14874,177.4
14876,138.2
14878,129.1
14880,200.8
14883,132.2
14884,89.9
14885,174.9
14889,141.1
14891,135.3
14892,116.2
14895,92.1
14896,163.6
14897,164.2
14901,146.4
14905,167.0
14906,98.2
14907,116.5
14910,140.0
14911,155.9
14914,132.0
14915,164.6
14916,181.7
14918,126.5
14921,129.8
14924,195.1
14925,172.1
14927,82.1
14929,128.5
14931,113.7
14932,97.3
14934,132.5
14936,207.1
14938,156.2
14939,82.2
14941,163.4
14942,88.8
14945,93.1
14948,173.4
14952,171.2
14953,169.9
14954,80.5
14955,103.5
14956,171.6
14957,118.8
14963,144.5
14964,198.1
14965,191.2
14967,121.0
14968,189.0
14970,168.5
14971,116.2
14974,161.0
14977,134.9
14979,198.9
14980,88.7
14982,87.1
14985,98.2
14988,88.7
14989,193.8
14991,149.2
14993,128.9
14994,120.1
14995,120.0
14996,192.8
14997,116.2
14999,107.7
15000,156.8
15001,91.7
15002,139.0
15003,176.3
15004,124.1
15005,113.9
15007,118.9
15010,111.1
15011,119.3
15016,96.7
15019,104.4
15021,158.7
15022,116.7
15024,98.2
15026,82.2
15030,196.6
15034,193.6
15036,101.6
15037,111.1
15038,173.9
15039,181.8
15040,142.5
15043,109.3
15047,126.5
15048,90.7
15050,118.8
15051,199.1
15052,168.7
15055,178.1
15056,132.8
15057,120.3
15058,192.7
15064,105.9
15065,144.6
15067,119.3
15068,106.5
15069,206.0
15073,199.4
15076,89.9
15077,118.8
15078,167.7
15079,81.1
15081,126.2
15082,128.6
15083,114.8
15084,202.8
15085,134.4
15089,121.4
15090,116.2
15091,185.9
15093,125.4
15096,203.6
15098,201.6
15099,180.9
15100,127.4
15104,101.8
15105,95.6
15107,95.5
15113,151.5
15115,122.6
15117,113.7
15118,194.0
15120,184.9
15125,87.5
15126,155.1
15128,119.5
15130,113.7
15133,195.2
15136,183.2
15137,89.9
15142,102.2
15143,98.2
15144,209.7
15145,207.3
15146,122.9
15147,185.0
15149,189.1
15152,206.5
15156,108.5
15160,94.4
15163,139.9
15166,178.5
15167,103.1
15170,108.5
15173,149.9
15174,202.5
15175,92.6
15176,108.6
15178,149.2
15179,204.1
15182,91.9
15183,100.8
15185,195.9
15187,179.5
15188,175.2
15190,209.1
15192,204.9
15193,88.5
15195,113.6
15197,116.2
15199,130.1
15202,113.7
15203,171.5
15210,118.8
15213,207.7
15215,102.5
15216,198.9
15217,93.4
15218,159.1
15223,98.2
15224,128.1
15225,140.2
15226,189.4
15227,207.1
15228,190.1
15230,189.3
15232,175.6
15234,93.2
15235,88.2
15237,113.7
15238,120.9
15239,141.4
15240,105.1
15241,91.8
15242,91.3
15243,174.1
15244,91.5
15247,112.4
15250,116.2
15251,123.2
15253,163.3
15256,127.1
15258,190.4
15263,103.4
15266,203.8
15267,121.7
15269,85.1
15270,87.7
15271,120.0
15274,81.3
15275,137.3
15277,126.5
15278,91.4
15284,172.6
15289,196.2
15290,121.4
15291,160.2
15292,195.4
15293,132.9
15295,159.8
15302,119.4
15303,179.8
15304,103.4
15305,121.6
15306,132.9
15309,189.1
15312,136.2
15313,177.4
15314,119.7
15317,208.4
15318,129.1
15319,119.5
15320,181.8
15326,176.5
15331,113.7
15336,103.9
15337,156.8
15338,98.4
15344,93.1
15345,202.0
15346,191.5
15348,157.7
15350,124.4
15351,87.2
15353,119.9
15354,90.7
15356,123.9
15357,160.4
15368,175.4
15371,111.1
15372,93.4
15373,134.5
15375,93.6
15378,170.3
15382,129.7
15384,90.5
15385,163.3
15387,169.7
15391,92.1
15395,87.7
15396,121.4
15397,178.0
15401,189.2
15402,171.3
15404,148.4
15405,97.2
15406,166.3
15408,97.4
15410,111.1
15414,176.2
15415,132.6
15417,98.4
15420,187.1
15422,200.3
15423,93.1
15431,99.8
15432,90.9
15433,185.4
15436,113.7
15438,126.3
15441,162.9
15443,102.2
15445,181.7
15446,188.6
15447,153.9
15448,129.6
15450,111.1
15458,99.0
15459,148.8
15462,162.1
15463,98.2
15464,144.6
15465,184.0
15466,172.1
15467,176.9
15468,81.4
15469,153.9
15470,98.1
15472,184.0
15475,118.8
15477,162.3
15478,201.8
15479,162.4
15483,144.0
15487,178.8
15489,116.2
15490,151.7
15491,139.3
15494,171.4
15496,100.5
15497,84.0
15499,204.8
15501,165.9
15503,98.2
15504,198.7
15505,114.8
15506,124.1
15508,144.1
15510,96.7
15512,184.7
15513,152.3
15514,202.1
15515,111.1
15518,98.8
15521,125.5
15522,118.4
15524,104.2
15526,173.2
15528,118.8
15532,85.8
15535,168.0
15538,146.5
15542,108.5
15544,200.3
15545,163.5
15546,171.8
15547,99.2
15548,162.1
15549,147.1
15550,82.1
15555,126.5
15556,129.4
15557,117.4
15559,83.7
15560,182.9
15561,188.1
15562,114.1
15566,134.4
15568,126.6
15569,116.2
15572,119.1
15573,142.0
15574,138.7
15575,184.6
15576,170.0
15578,158.9
15579,124.3
15581,173.3
15582,83.0
15583,93.1
15584,193.2
15585,162.5
15586,206.4
15588,156.0
15589,123.0
15590,131.0
15593,169.4
15594,106.6
15595,116.2
15597,92.2
15598,130.6
15607,161.5
15608,118.8
15610,126.1
15611,184.7
15612,108.7
15614,152.7
15616,149.0
15617,200.5
15618,137.6
15622,98.2
15625,194.4
15627,125.2
15629,170.6
15631,198.5
15634,159.7
15635,111.1
15636,187.8
15638,89.6
15642,130.6
15644,204.7
15648,105.9
15649,134.2
15650,96.6
15651,200.6
15655,189.6
15656,83.0
15657,91.5
15662,93.1
15666,92.7
15673,174.5
15674,105.9
15675,105.2
15676,129.7
15677,199.9
15679,142.7
15682,156.6
15683,166.5
15684,138.1
15685,194.7
15686,178.0
15687,111.1
15690,160.0
15693,107.9
15695,82.2
15696,122.8
15697,178.8
15698,174.9
15699,191.4
15700,147.7
15702,103.4
15704,183.7
15706,179.5
15708,174.9
15710,152.8
15714,203.6
15715,116.2
15716,154.0
15719,120.0
15722,156.6
15727,178.0
15728,111.1
15731,113.8
15732,185.2
15733,175.0
15734,204.4
15737,110.3
15738,137.3
15740,152.9
15741,100.8
15744,156.5
15749,194.8
15751,204.5
15752,133.1
15754,108.0
15755,131.7
15756,87.3
15757,153.4
15759,174.7
15766,96.4
15768,174.9
15769,121.4
15770,144.1
15772,185.0
15776,113.3
15778,146.4
15782,98.2
15783,147.2
15784,185.9
15785,148.7
15786,180.1
15789,188.5
15790,123.1
15792,169.5
15795,118.8
15801,99.4
15803,195.8
15806,127.8
15807,166.3
15808,113.7
15811,166.1
15813,166.3
15814,193.4
15816,100.7
15818,197.8
15819,173.2
15820,197.1
15821,95.6
15822,178.8
15826,94.4
15829,108.4
15831,111.9
15832,107.3
15835,118.8
15838,136.8
15840,146.3
15848,113.7
15850,124.6
15851,149.6
15855,118.7
15861,98.2
15863,202.5
15864,134.9
15866,197.9
15869,163.1
15873,145.3
15874,111.1
15875,159.4
15884,131.9
15886,122.1
15887,111.1
15889,151.7
15890,142.4
15893,114.9
15894,116.5
15895,122.3
15901,103.4
15902,154.7
15909,123.5
15910,90.3
15915,123.9
15916,126.5
15917,106.1
15920,201.9
15923,121.9
15925,124.8
15927,182.3
15928,116.2
15929,122.9
15931,161.7
15936,200.1
15937,171.0
15939,143.5
15941,98.2
15942,149.9
15944,139.5
15947,115.9
15949,205.7
15950,88.4
15951,162.7
15953,118.8
15956,206.2
15957,130.2
15958,195.4
15959,200.7
15960,135.7
15964,122.0
15965,95.6
15968,126.5
15972,177.3
15974,95.3
15975,160.2
15976,144.1
15978,113.4
15979,109.1
15980,159.7
15981,105.9
15984,126.2
15987,121.4
15988,179.8
15991,181.2
15993,136.7
15994,129.1
15999,195.3
16000,159.5
16001,137.3
16002,157.9
16003,110.9
16008,113.7
16009,173.9
16015,198.8
16018,86.5
16020,204.2
16021,93.1
16029,125.6
16030,145.6
16034,118.8
16038,103.9
16040,188.6
16043,131.5
16044,104.9
16046,84.9
16047,178.6
16048,118.8
16049,122.5
16050,141.8
16052,163.1
16054,102.4
16056,116.5
16057,96.4
16059,116.5
16060,150.4
16061,95.6
16062,176.9
16064,119.7
16066,166.2
16067,101.8
16070,129.6
16072,151.9
16073,113.7
16074,153.8
16075,147.6
16076,113.0
16081,165.1
16086,86.4
16087,111.1
16091,90.8
16095,162.4
16096,145.8
16097,84.4
16098,81.1
16099,106.5
16101,93.1
16102,198.3
16103,152.0
16104,89.4
16105,191.1
16106,193.2
16108,137.0
16111,111.5
16112,183.3
16113,108.5
16117,148.5
16118,132.0
16122,177.1
16124,93.6
16126,113.7
16127,125.0
16130,114.0
16132,134.2
16133,82.1
16135,111.9
16137,100.1
16138,131.1
16139,160.0
16140,98.2
16142,136.9
16149,191.3
16151,201.1
16152,111.1
16154,187.2
16155,132.4
16160,171.1
16162,144.5
16163,86.3
16164,123.3
16166,111.1
16169,106.8
16170,200.3
16177,190.8
16180,103.4
16183,118.9
16184,154.5
16185,93.9
16186,169.8
16189,172.4
16191,186.7
16193,123.9
16194,125.4
16196,137.8
16197,161.4
16200,168.8
16203,184.4
16205,127.4
16206,123.9
16208,85.5
16209,207.5
16210,194.3
16213,203.4
16214,206.1
16215,173.9
16218,190.5
16219,164.4
16220,103.4
16223,165.3
16224,152.4
16229,191.9
16233,167.6
16234,121.4
16236,139.0
16239,193.7
16240,151.4
16241,91.6
16246,100.6
16247,116.2
16250,103.7
16252,113.8
16254,202.5
16255,128.2
16258,142.1
16260,146.6
16261,98.2
16265,117.5
16266,131.4
16267,138.0
16271,159.2
16273,126.5
16275,188.2
16276,188.1
16277,187.9
16278,90.7
16279,181.6
16280,153.1
16283,154.0
16286,116.2
16287,93.0
16290,145.6
16291,139.3
16292,128.7
16293,88.9
16297,154.4
16299,169.4
16301,93.1
16302,118.9
16303,183.2
16308,158.5
16310,101.5
16311,106.8
16312,93.0
16313,116.2
16315,199.3
16320,160.6
16321,103.1
16322,178.7
16323,178.8
16326,113.7
16328,147.3
16330,163.7
16331,166.2
16332,141.9
16333,137.2
16335,136.5
16336,129.3
16337,121.5
16339,98.2
16344,196.7
16346,142.6
16349,127.0
16350,119.4
16351,159.7
16352,118.8
16354,164.3
16355,172.1
16357,163.0
16358,119.8
16362,207.9
16366,116.2
16367,136.1
16368,141.2
16369,144.0
16372,123.7
16373,133.4
16375,153.3
16376,203.6
16379,95.6
16380,174.4
16381,187.9
16385,114.5
16387,159.6
16390,196.7
16391,143.3
16392,108.5
16393,203.1
16398,170.2
16400,118.8
16402,94.6
16405,116.2
16406,107.4
16408,157.2
16410,140.7
16418,103.4
16420,209.2
16425,166.3
16426,94.3
16428,203.5
16430,163.6
16432,140.1
16433,118.8
16435,191.6
16436,179.6
16439,159.9
16440,114.2
16446,111.1
16450,166.2
16453,186.4
16456,165.7
16458,170.3
16459,95.6
16460,142.9
16462,102.5
16463,202.5
16465,140.9
16467,145.1
16468,132.2
16469,93.5
16471,124.5
16472,113.7
16473,164.3
16475,175.1
16476,143.4
16478,92.4
16479,149.4
16483,193.8
16484,128.6
16485,118.8
16486,107.8
16487,166.5
16488,99.7
16490,191.9
16491,149.7
16495,205.7
16496,125.4
16497,82.3
16498,180.8
16499,98.2
16502,177.5
16503,182.1
16511,188.8
16512,108.5
16516,143.2
16517,157.7
16519,188.3
16522,127.1
16523,145.2
16524,165.0
16525,111.1
16527,132.3
16528,100.2
16531,196.7
16532,149.0
16538,100.8
16539,198.2
16540,161.6
16545,95.3
16548,105.1
16549,101.8
16551,121.4
16553,107.7
16554,175.7
16555,182.3
16556,163.0
16557,137.7
16560,119.1
16563,140.5
16565,112.7
16566,116.2
16567,184.9
16568,209.6
16569,137.8
16571,173.1
16573,113.1
16578,207.3
16579,95.6
16580,167.0
16583,143.6
16585,185.2
16588,186.7
16589,111.9
16591,113.7
16601,117.8
16605,111.1
16606,152.3
16610,172.8
16611,154.3
16612,209.3
16614,147.4
16618,108.5
16619,108.2
16620,202.0
16621,128.5
16623,179.7
16627,84.8
16631,140.0
16632,131.7
16633,104.8
16636,187.2
16637,93.1
16638,90.1
16639,125.2
16641,168.1
16646,121.4
16651,165.7
16652,85.1
16656,93.6
16659,95.6
16661,177.5
16663,202.2
16666,139.8
16667,182.8
16669,115.1
16671,121.4
16673,84.3
16675,150.6
16678,171.1
16681,103.2
16685,121.4
16686,148.8
16687,120.8
16689,92.7
16692,197.5
16695,100.3
16699,105.9
16701,177.4
16702,127.5
16705,185.4
16706,110.7
16707,151.5
16708,182.9
16709,156.1
16710,137.9
16711,168.0
16712,131.7
16713,125.9
16717,105.7
16721,135.7
16722,210.0
16726,116.2
16729,127.8
16730,167.6
16731,126.3
16732,148.5
16733,133.0
16735,143.6
16736,139.1
16737,97.3
16738,150.0
16739,95.6
16742,115.1
16743,91.1
16751,126.5
16755,107.8
16756,184.1
16759,186.6
16765,123.9
16766,177.9
16767,159.6
16768,89.7
16770,104.6
16774,158.5
16776,198.4
16778,120.3
16779,100.8
16788,144.0
16789,120.3
16790,159.9
16792,129.1
16793,136.2
16794,190.6
16796,200.0
16799,120.8
16800,172.6
16802,174.5
16803,133.8
16805,116.2
16806,179.9
16807,195.0
16810,203.6
16812,114.8
16813,205.2
16814,105.5
16816,179.8
16818,206.5
16819,98.2
16820,166.8
16821,166.3
16823,198.8
16825,167.6
16827,109.7
16828,127.3
16831,161.8
16832,131.7
16836,189.7
16842,152.9
16844,99.9
16845,121.4
16846,187.2
16847,146.8
16848,206.7
16849,124.6
16852,203.3
16854,167.0
16856,110.8
16859,98.2
16860,174.8
16862,185.3
16865,203.0
16869,172.0
16870,184.0
16871,126.5
16872,98.4
16874,145.9
16878,179.3
16883,130.7
16884,121.4
16891,202.1
16893,93.5
16897,185.3
16899,103.4
16901,167.4
16902,204.4
16904,183.6
16905,101.6
16906,114.3
16908,165.5
16909,121.9
16910,100.7
16912,134.2
16922,129.1
16925,121.4
16926,200.0
16928,156.1
16930,182.7
16931,151.1
16932,184.8
16934,99.1
16938,123.3
16939,100.8
16940,160.4
16944,119.8
16945,207.0
16946,178.6
16949,138.7
16950,114.3
16952,129.1
16953,161.8
16954,129.1
16960,128.4
16965,107.9
16966,118.8
16969,128.7
16971,186.5
16972,116.4
16973,200.2
16975,94.2
16976,92.7
16977,180.4
16978,149.2
16979,100.8
16980,190.5
16983,197.7
16988,124.5
16989,107.8
16990,199.8
16991,104.4
16992,205.6
16993,126.5
16994,169.3
16997,98.8
17003,106.8
17006,108.5
17007,187.3
17010,163.7
17013,93.0
17017,157.1
17018,137.8
17019,93.1
17022,203.7
17023,135.7
17024,119.1
17025,93.0
17026,181.2
17027,116.3
17028,144.6
17029,90.4
17031,129.7
17032,97.5
17033,129.1
17035,83.6
17037,89.7
17038,166.0
17042,111.7
17044,111.6
17046,108.5
17048,114.7
17049,87.8
17053,92.7
17054,104.0
17056,102.0
17059,90.5
17066,106.9
17070,130.6
17072,123.9
17074,105.4
17078,146.1
17079,194.2
17081,131.3
17085,111.1
17086,117.8
17087,198.0
17090,86.0
17092,154.5
17095,208.9
17097,166.0
17098,142.8
17099,98.2
17100,94.1
17101,150.7
17102,180.8
17103,129.0
17104,176.3
17109,128.5
17110,142.8
17112,134.2
17113,165.0
17115,169.6
17116,88.5
17119,134.1
17123,204.6
17124,144.9
17125,113.7
17127,85.4
17128,150.9
17131,189.9
17135,131.3
17136,86.4
17137,119.0
17138,95.6
17140,145.1
17142,185.8
17145,108.9
17150,131.7
17151,109.4
17153,187.5
17154,101.0
17156,189.8
17157,165.1
17158,183.5
17159,113.4
17161,135.8
17162,118.8
17163,156.5
17165,126.5
17168,90.8
17171,84.8
17172,173.3
17173,169.0
17175,110.0
17177,168.6
17178,108.5
17179,130.3
17182,198.5
17186,183.5
17191,134.2
17192,154.0
17199,205.5
17200,173.5
17202,177.6
17203,163.9
17205,113.7
17206,109.8
17210,97.0
17212,185.9
17213,209.7
17214,171.7
17216,157.5
17218,95.6
17220,168.7
17222,96.0
17225,89.0
17231,131.7
17232,192.2
17233,152.6
17234,93.0
17236,131.6
17238,150.8
17240,155.3
17242,140.4
17243,81.4
17244,116.0
17245,123.9
17248,95.3
17250,123.2
17251,112.1
17253,157.8
17254,162.9
17258,100.8
17259,131.7
17260,98.0
17262,193.7
17264,203.8
17266,132.2
17268,80.4
17269,102.7
17270,135.0
17271,126.5
17273,175.5
17274,178.4
17275,151.6
17278,146.3
17281,127.7
17285,111.1
17286,115.9
17287,81.4
17289,192.4
17291,200.6
17292,110.1
17293,180.5
17294,127.8
17295,110.0
17298,145.5
17299,98.2
17300,118.7
17303,168.7
17305,160.8
17308,90.7
17310,133.1
17311,131.7
17314,138.3
17319,195.1
17325,118.8
17328,122.4
17329,91.0
17330,120.5
17333,199.4
17334,129.1
17336,108.3
17337,169.7
17338,98.2
17339,124.9
17341,83.4
17342,101.2
17346,90.6
17347,86.1
17349,185.0
17350,131.7
17354,91.5
17355,198.4
17357,111.8
17358,91.3
17361,123.0
17364,116.2
17365,146.7
17367,162.5
17373,171.8
17374,153.6
17375,81.6
17376,108.7
17378,100.8
17380,185.0
17381,192.1
17385,139.0
17387,144.1
17391,134.2
17394,144.1
17395,191.4
17396,170.9
17398,105.0
17403,124.9
17404,113.7
17409,145.0
17410,198.0
17411,196.1
17412,119.5
17416,96.8
17417,198.3
17418,93.1
17420,170.8
17421,80.6
17422,92.1
17423,131.0
17425,150.3
17426,110.1
17430,162.5
17431,126.5
17434,152.2
17437,121.7
17439,111.1
17441,130.1
17444,116.2
17447,113.7
17448,178.3
17450,139.0
17451,188.3
17453,139.5
17455,192.5
17456,136.6
17457,87.9
17458,100.8
17462,130.4
17465,109.2
17471,129.1
17472,122.2
17473,204.0
17474,189.6
17475,201.1
17476,183.9
17479,139.2
17480,162.6
17481,189.5
17482,189.6
17484,113.7
17486,163.1
17487,141.4
17493,110.7
17494,109.6
17495,103.0
17496,155.4
17498,134.6
17499,100.8
17502,187.7
17504,174.3
17508,123.3
17509,178.1
17512,126.5
17513,145.0
17514,207.4
17515,209.3
17516,124.2
17517,181.3
17518,119.3
17523,116.5
17525,105.9
17526,149.3
17529,85.6
17533,119.5
17535,193.5
17536,137.0
17537,184.3
17539,98.2
17543,189.7
17545,150.4
17547,208.8
17551,123.9
17553,130.3
17557,191.3
17560,189.9
17564,101.1
17565,105.9
17568,86.7
17570,157.3
17572,190.3
17574,195.8
17576,126.8
17579,95.6
17582,155.4
17583,195.7
17584,184.4
17585,133.8
17586,95.3
17589,94.0
17591,126.5
17592,142.9
17594,209.1
17595,141.4
17597,119.9
17600,138.4
17601,117.7
17604,105.9
17605,176.6
17608,134.4
17610,140.0
17611,146.5
17613,182.7
17614,99.7
17615,130.4
17616,155.0
17617,93.1
17625,118.5
17627,123.9
17630,202.6
17631,123.9
17632,168.4
17633,178.6
17636,155.4
17637,159.2
17641,113.5
17644,108.5
17647,169.1
17648,148.7
17651,125.4
17654,134.2
17656,189.6
17657,95.6
17658,129.3
17659,156.7
17660,157.7
17661,199.9
17662,204.0
17663,173.3
17665,133.0
17666,108.4
17667,97.2
17670,131.7
17673,133.3
17679,151.2
17681,84.4
17682,179.8
17683,116.2
17684,137.6
17686,137.3
17687,139.3
17688,157.5
17689,140.9
17691,178.4
17692,106.7
17693,153.5
17694,187.3
17695,98.8
17696,109.0
17697,98.2
17698,140.9
17699,103.9
17700,176.9
17701,178.6
17707,137.7
17708,167.1
17709,91.1
17710,131.7
17711,203.0
17712,178.7
17714,208.5
17715,96.0
17716,152.0
17717,134.5
17720,104.4
17721,183.1
17723,123.9
17724,132.9
17725,205.7
17728,164.9
17734,101.8
17736,100.8
17742,106.2
17746,110.1
17747,169.0
17748,180.9
17750,131.7
17752,86.7
17753,98.6
17757,160.2
17761,200.8
17762,112.8
17763,129.3
17764,111.1
17767,182.4
17768,185.9
17769,195.6
17771,188.5
17773,203.8
17774,129.1
17777,93.1
17778,208.0
17779,113.6
17780,109.5
17781,199.2
17782,131.8
17783,124.7
17784,97.0
17785,124.3
17786,149.9
17787,130.9
17789,129.1
17791,181.2
17792,157.8
17794,91.7
17795,145.8
17799,111.5
17800,173.0
17802,86.3
17803,113.7
17805,182.1
17807,192.0
17811,114.4
17812,149.0
17813,187.6
17816,95.6
17819,123.7
17821,149.1
17823,181.4
17824,124.3
17827,93.9
17828,126.5
17830,205.0
17831,162.1
17832,179.4
17834,147.6
17839,81.3
17841,101.7
17843,111.1
17848,125.5
17852,120.4
17853,98.6
17856,93.1
17863,184.3
17864,122.1
17867,206.7
17868,129.1
17870,133.3
17871,209.1
17872,206.2
17873,127.5
17874,184.1
17875,142.4
17878,191.8
17879,203.7
17881,151.6
17882,118.8
17883,162.9
17884,138.1
17885,131.6
17886,168.2
17895,100.8
17897,85.5
17898,173.9
17901,203.6
17903,101.9
17905,112.4
17908,89.8
17909,129.1
17913,142.5
17916,197.3
17919,92.1
17920,205.9
17921,197.5
17922,152.8
17923,113.7
17924,205.4
17926,199.9
17927,203.7
17928,180.8
17929,166.0
17930,150.2
17931,141.4
17933,148.2
17934,142.9
17936,100.8
17938,199.6
17939,147.5
17942,106.4
17945,183.7
17948,89.9
17949,131.7
17950,184.2
17954,184.7
17955,153.8
17956,183.6
17960,102.6
17961,186.3
17963,141.6
17964,111.1
17965,166.6
17967,131.0
17971,119.1
17974,135.5
17976,110.5
17977,98.2
17979,178.8
17981,150.4
17984,145.9
17985,141.2
17988,82.5
17989,129.1
17990,90.2
17992,85.4
17993,148.5
17996,120.6
17998,169.0
18000,99.5
18001,82.8
18002,111.1
18005,168.5
18011,175.0
18012,165.3
18016,95.6
18017,80.5
18020,174.0
18021,143.6
18024,118.7
18027,203.1
18028,131.7
18029,88.7
18031,115.8
18034,144.8
18035,97.9
18037,192.4
18040,88.9
18042,113.7
18043,192.9
18044,115.0
18050,134.0
18051,193.7
18052,121.5
18053,176.2
18056,103.4
18061,181.4
18066,126.2
18069,131.7
18070,132.7
18072,168.5
18074,138.2
18075,115.9
18078,187.3
18080,109.9
18082,111.1
18084,173.8
18088,87.2
18089,149.5
18090,179.7
18093,118.0
18095,150.6
18097,103.4
18098,202.1
18101,104.5
18103,81.7
18104,205.8
18105,146.0
18110,129.1
18119,144.1
18121,197.3
18122,169.5
18123,111.1
18126,108.1
18129,149.5
18131,163.8
18133,135.4
18134,183.4
18136,192.4
18137,100.8
18139,123.6
18140,207.1
18146,100.0
18147,97.5
18149,143.1
18150,118.8
18151,114.8
18156,166.3
18157,124.5
18159,171.5
18162,160.7
18163,139.8
18164,108.5
18165,92.4
18171,85.8
18175,93.9
18176,136.2
18177,159.2
18178,105.9
18179,190.1
18187,142.8
18188,97.2
18190,160.3
18191,116.2
18194,125.6
18195,154.3
18198,86.0
18202,190.3
18204,111.1
18205,100.1
18206,174.1
18208,125.9
18209,111.0
18211,171.7
18212,206.0
18214,138.5
18217,108.5
18226,80.5
18227,114.9
18229,164.2
18232,105.9
18240,105.7
18241,142.0
18242,124.3
18244,101.0
18245,118.8
18251,198.2
18253,124.7
18256,205.4
18258,116.2
18263,162.1
18264,128.4
18269,122.0
18270,96.2
18272,108.5
18277,135.8
18278,107.4
18285,126.5
18287,158.6
18293,137.7
18295,116.7
18299,121.4
18300,101.4
18301,82.5
18302,182.4
18304,123.5
18305,201.7
18307,119.4
18311,191.7
18313,103.4
18324,209.3
18325,205.2
18326,134.2
18329,198.9
18330,118.9
18331,185.4
18335,187.5
18337,155.8
18338,100.6
18339,123.9
18340,96.9
18343,158.2
18345,147.2
18346,150.9
18347,170.1
18351,103.1
18353,100.8
18355,164.9
18357,203.8
18358,205.8
18364,198.9
18366,174.6
18367,129.1
18368,110.6
18370,200.1
18371,136.5
18376,182.6
18379,142.4
18380,123.9
18389,194.6
18394,100.8
18397,113.5
18398,104.9
18400,119.7
18403,161.9
18407,134.2
18410,124.5
18412,119.6
18420,113.7
18422,196.6
18424,147.5
18426,101.4
18428,206.7
18435,93.1
18436,128.9
18438,142.0
18440,123.9
18442,132.8
18444,172.4
18446,120.0
18447,129.1
18448,196.3
18452,192.7
18454,164.2
18457,188.5
18460,113.7
18461,159.7
18463,154.3
18466,179.2
18467,109.4
18468,200.7
18469,164.1
18470,163.3
18471,96.3
18473,100.8
18476,141.2
18477,192.3
18479,204.9
18483,161.4
18486,173.7
18487,134.2
18492,153.8
18493,81.2
18495,88.6
18496,170.9
18499,142.8
18501,113.7
18504,142.1
18505,96.6
18509,194.3
18512,132.7
18513,170.3
18514,95.6
18517,206.0
18520,188.3
18521,96.4
18522,114.0
18524,100.0
18526,84.3
18527,131.7
18529,133.6
18533,157.9
18536,86.9
18540,118.8
18541,178.9
18543,173.3
18544,114.9
18545,187.9
18546,206.7
18547,198.6
18548,168.2
18550,99.3
18552,111.4
18553,100.8
18556,202.7
18561,94.8
18562,139.8
18563,186.5
18565,131.5
18566,198.5
18567,113.6
18568,123.9
18571,204.8
18573,122.7
18574,154.3
18577,182.4
18578,194.2
18579,162.4
18581,108.5
18582,147.8
18584,96.4
18585,159.3
18587,109.0
18589,207.3
18594,111.1
18599,159.4
18603,208.1
18605,115.5
18606,184.1
18607,101.3
18608,131.7
18610,154.8
18611,162.9
18614,188.4
18618,205.2
18619,164.2
18620,122.0
18621,111.1
18622,134.2
18627,134.0
18631,170.2
18634,182.4
18635,100.8
18644,183.6
18646,90.7
18647,125.9
18649,118.8
18650,192.2
18653,82.6
18659,101.9
18662,111.1
18663,136.1
18666,198.7
18667,176.4
18668,140.4
18670,181.3
18672,132.3
18673,81.4
18675,116.2
18679,173.6
18682,98.6
18683,153.2
18685,154.7
18687,171.4
18688,162.7
18689,118.8
18690,136.2
18691,189.5
18692,132.9
18693,192.4
18695,163.8
18696,119.1
18699,138.7
18700,143.6
18701,189.5
18703,111.1
18704,171.7
18705,121.4
18706,165.6
18709,86.8
18710,199.7
18711,102.9
18713,112.3
18716,108.5
18718,132.1
18721,144.1
18722,98.7
18724,171.7
18726,88.0
18727,136.3
18729,105.9
18730,203.5
18732,185.5
18733,114.8
18734,154.2
18735,160.9
18742,119.8
18743,116.2
18744,110.1
18745,154.7
18754,156.4
18756,118.8
18757,116.0
18759,191.0
18761,176.1
18763,167.3
18764,192.5
18768,182.9
18769,169.6
18770,105.9
18775,102.7
18779,140.9
18783,170.2
18784,123.9
18785,123.5
18786,105.8
18789,187.5
18790,187.4
18793,92.8
18795,108.8
18796,82.6
18797,118.8
18800,142.6
18801,116.0
18802,112.3
18803,196.8
18804,168.3
18808,86.6
18809,208.1
18810,103.4
18812,135.0
18813,93.2
18815,103.2
18818,118.1
18821,141.8
18822,113.0
18823,162.4
18824,134.2
18825,150.0
18826,104.8
18828,186.5
18829,100.4
18834,111.4
18838,121.4
18839,125.1
18841,122.1
18846,89.4
18847,86.3
18848,112.3
18850,97.2
18851,98.2
18852,92.5
18858,83.7
18859,172.1
18861,127.5
18864,126.5
18866,126.3
18867,149.5
18869,144.8
18873,184.5
18875,204.3
18876,114.7
18877,123.9
18879,209.7
18880,86.8
18883,99.7
18884,196.4
18887,186.3
18890,105.9
18891,167.8
18892,203.0
18893,131.1
18896,89.3
18900,157.2
18901,100.3
18902,185.7
18903,191.3
18904,97.1
18905,134.2
18906,110.2
18910,184.1
18912,84.6
18914,143.2
18916,147.2
18917,156.2
18918,118.8
18919,189.8
18921,186.9
18923,175.3
18927,195.2
18929,197.4
18930,125.4
18931,98.2
18932,176.6
18936,174.8
18937,120.3
18944,131.7
18946,204.9
18949,201.1
18953,206.6
18955,160.1
18957,126.5
18960,193.7
18961,94.3
18962,170.0
18963,191.6
18965,120.8
18968,144.5
18969,95.8
18971,105.9
18972,201.1
18973,136.2
18975,110.0
18976,204.6
18978,162.1
18979,97.1
18980,116.1
18981,112.0
18983,189.2
18984,134.2
18987,136.0
18988,176.8
18992,97.4
18993,190.8
18994,167.3
18996,193.4
18997,165.4
18998,118.8
19001,195.9
19002,173.1
19004,110.9
19005,97.1
19008,193.6
19011,100.8
19012,80.1
19013,136.7
19014,89.5
19015,85.4
19016,100.0
19020,120.9
19021,153.1
19022,130.1
19023,185.1
19024,129.1
19027,166.8
19030,134.6
19032,137.9
19035,194.0
19036,119.8
19039,116.2
19041,169.2
19045,170.1
19046,134.9
19048,198.7
19051,145.7
19052,98.2
19054,176.9
19055,157.1
19057,94.2
19061,90.2
19062,117.0
19064,129.1
19070,178.1
19074,175.3
19078,118.8
19079,190.4
19080,175.2
19081,158.0
19082,143.1
19083,146.7
19084,145.1
19087,92.8
19088,157.2
19091,105.9
19092,85.0
19094,183.9
19095,196.5
19096,165.3
19097,130.2
19099,111.6
19100,148.0
19103,133.0
19104,146.1
19105,134.2
19107,172.0
19110,175.4
19112,91.5
19113,186.2
19115,125.9
19117,134.7
19119,111.1
19121,157.5
19124,209.1
19126,161.6
19131,165.9
19132,98.2
19134,129.6
19136,209.1
19138,178.6
19139,149.7
19141,100.8
19142,142.2
19143,148.1
19144,131.7
19148,81.6
19151,203.4
19153,172.9
19155,100.4
19157,80.2
19158,118.8
19159,163.0
19160,152.0
19164,167.5
19166,202.7
19169,117.7
19172,103.4
19174,100.1
19176,105.1
19179,107.4
19181,134.6
19184,82.3
19185,131.7
19186,147.0
19188,174.5
19190,172.5
19191,83.7
19194,149.4
19195,86.5
19196,132.0
19197,137.6
19198,108.5
19200,195.0
19201,178.8
19205,155.9
19206,208.5
19207,128.3
19209,163.4
19210,125.1
19212,95.6
19214,116.9
19221,151.3
19222,133.5
19224,126.5
19225,195.9
19230,113.8
19231,142.5
19232,153.4
19237,202.7
19238,111.1
19243,129.3
19244,147.0
19248,134.3
19249,128.4
19252,103.4
19254,192.9
19258,123.9
19262,143.9
19264,93.1
19265,129.1
19266,135.2
19268,126.1
19273,85.9
19275,166.9
19277,183.4
19278,111.1
19279,186.7
19280,106.9
19281,119.5
19284,200.4
19289,91.6
19290,86.3
19291,161.4
19292,103.4
19294,137.1
19298,156.5
19304,99.1
19305,173.6
19306,126.5
19307,97.5
19315,148.8
19319,113.7
19320,205.0
19323,135.7
19329,178.6
19330,107.8
19332,180.2
19333,105.9
19336,171.5
19338,142.7
19339,111.5
19340,168.0
19341,92.9
19346,116.2
19350,144.4
19352,152.4
19355,94.1
19356,181.8
19358,189.2
19359,111.1
19360,94.0
19366,116.8
19367,142.5
19369,100.0
19371,190.8
19374,118.8
19375,98.7
19380,166.4
19384,98.0
19386,128.7
19387,118.8
19389,186.3
19390,123.8
19391,83.1
19393,87.5
19396,124.5
19398,156.7
19399,84.1
19400,123.9
19402,209.2
19409,173.6
19411,166.6
19413,156.2
19414,121.4
19415,151.6
19416,107.1
19423,190.1
19425,132.2
19427,139.6
19428,108.5
19429,147.7
19430,142.2
19431,120.3
19433,92.7
19435,107.9
19436,106.3
19439,183.2
19441,126.5
19444,116.7
19445,148.4
19446,180.4
19448,87.7
19450,83.9
19452,90.3
19453,109.0
19454,121.4
19456,100.5
19458,119.9
19459,201.8
19461,208.2
19464,143.9
19467,206.6
19468,108.5
19469,116.1
19470,136.9
19473,153.9
19474,205.0
19476,133.7
19477,208.7
19478,133.7
19481,134.2
19482,130.4
19483,146.6
19486,144.5
19487,105.3
19488,93.0
19494,158.7
19495,123.9
19497,129.1
19499,98.9
19501,100.2
19503,181.1
19506,162.1
19507,87.2
19509,103.4
19512,101.6
19514,112.5
19516,96.9
19517,196.6
19518,117.3
19519,128.4
19522,136.8
19523,176.7
19524,138.7
19525,190.2
19527,203.9
19532,104.0
19533,90.2
19534,128.0
19535,126.5
19536,153.3
19537,85.7
19539,114.1
19540,200.0
19544,190.6
19547,101.6
19548,192.1
19549,103.4
19552,194.7
19553,81.6
19554,89.0
19556,132.3
19557,85.6
19559,150.5
19560,94.9
19562,103.4
19563,131.7
19566,155.3
19568,143.4
19570,151.9
19573,180.3
19575,143.2
19576,121.4
19578,159.8
19581,155.9
19582,129.6
19583,105.2
19584,90.8
19585,98.3
19586,130.8
19587,122.0
19588,151.7
19590,103.4
19592,185.6
19593,191.5
19594,119.4
19595,100.2
19598,98.8
19600,183.9
19603,136.8
19609,113.7
19613,152.2
19616,113.7
19617,112.6
19618,150.7
19621,131.1
19622,174.1
19623,111.8
19628,140.0
19630,140.1
19631,95.6
19632,119.0
19633,85.4
19634,202.6
19636,188.9
19638,193.3
19640,198.7
19641,84.1
19643,129.1
19644,99.8
19645,168.3
19648,162.1
19651,185.6
19653,199.6
19654,182.4
19655,158.6
19656,116.2
19657,112.3
19658,154.6
19660,80.8
19661,91.1
19662,114.3
19664,201.0
19666,182.4
19669,193.5
19670,100.8
19671,153.8
19672,176.8
19673,188.0
19674,185.9
19675,184.6
19679,160.0
19683,126.5
19684,175.4
19686,190.1
19687,129.2
19688,165.5
19690,157.9
19694,195.5
19696,174.4
19697,108.5
19702,133.2
19703,151.8
19706,181.0
19708,117.6
19709,205.9
19710,100.8
19712,108.7
19714,90.2
19716,92.1
19717,178.2
19718,147.0
19719,94.4
19721,191.5
19723,191.1
19724,126.5
19725,162.4
19727,120.6
19730,203.3
19737,111.1
19744,124.4
19745,91.2
19748,171.5
19750,105.9
19751,100.4
19752,162.7
19756,137.8
19757,156.3
19758,80.3
19760,120.5
19762,85.0
19764,127.0
19765,116.2
19766,80.2
19771,176.8
19772,183.0
19773,184.9
19775,197.4
19776,138.9
19777,118.5
19778,108.5
19779,186.3
19781,139.6
19783,107.6
19785,82.8
19788,93.6
19789,185.2
19791,118.8
19792,126.0
19794,198.4
19797,115.3
19799,141.6
19801,203.0
19802,99.8
19803,122.7
19804,207.0
19805,126.5
19806,158.0
19807,182.8
19808,139.1
19809,114.8
19810,108.9
19812,191.5
19816,201.9
19818,121.4
19820,114.5
19821,160.4
19823,155.5
19827,199.7
19829,148.3
19830,80.5
19831,202.5
19832,118.8
19833,112.1
19835,93.9
19836,109.7
19837,177.2
19838,209.9
19840,117.6
19844,104.2
19845,161.9
19846,108.5
19847,205.3
19848,89.2
19850,188.3
19851,82.2
19855,101.8
19857,178.7
19859,123.9
19860,138.6
19861,110.4
19862,88.5
19868,164.0
19869,85.9
19870,143.6
19871,203.2
19872,126.5
19876,111.4
19877,169.1
19879,84.7
19880,83.5
19881,149.4
19882,132.8
19884,123.2
19886,108.5
19887,132.9
19889,92.3
19891,121.9
19893,131.5
19894,130.5
19896,117.5
19898,88.0
19900,126.5
19907,137.3
19908,203.6
19913,126.5
19914,132.0
19917,157.9
19919,194.0
19920,129.2
19922,162.6
19923,155.9
19926,147.4
19927,105.9
19928,115.3
19930,112.8
19932,89.0
19933,81.6
19934,164.5
19935,132.7
19938,93.8
19940,139.4
19942,208.5
19946,199.8
19947,139.3
19948,140.9
19951,178.0
19952,137.8
19953,129.1
19954,203.5
19956,179.5
19957,108.9
19958,142.5
19962,154.6
19966,120.3
19967,105.6
19968,103.4
19969,106.3
19975,208.7
19977,84.8
19979,148.6
19981,131.7
19986,94.4
19989,195.0
19994,118.8
19995,137.5
19996,154.6
20002,178.7
20004,188.2
20007,105.9
20008,209.1
20009,116.1
20012,83.1
20015,199.8
20016,114.8
20019,118.2
20021,136.8
20022,202.8
20024,185.3
20025,123.4
20030,156.9
20033,138.2
20034,109.6
20035,118.8
20036,110.3
20037,166.1
20039,119.4
20040,153.4
20043,132.9
20048,98.2
20050,171.2
20054,124.5
20058,202.2
20061,129.1
20062,109.7
20064,208.1
20065,142.4
20066,168.4
20069,186.4
20070,174.5
20071,126.8
20072,197.9
20074,118.8
20077,193.9
20079,178.4
20083,120.4
20084,170.3
20087,103.4
20088,156.1
20090,103.4
20093,161.4
20096,207.4
20097,107.9
20098,130.2
20100,94.5
20101,176.2
20102,134.2
20104,142.1
20108,188.1
20109,110.6
20110,209.3
20113,108.1
20114,153.8
20115,111.1
20116,119.4
20118,135.6
20119,198.7
20121,115.5
20122,144.4
20124,174.0
20125,200.8
20127,105.5
20128,95.6
20130,177.0
20131,152.8
20135,125.4
20137,148.4
20138,191.5
20140,206.1
20141,126.5
20142,111.7
20143,160.8
20146,192.5
20149,165.7
20151,130.4
20152,138.9
20153,92.0
20154,116.2
20156,171.2
20161,208.8
20163,204.7
20164,115.6
20165,106.1
20167,96.2
20168,100.8
20171,179.5
20173,199.3
20174,130.8
20175,201.8
20176,136.0
20177,127.5
20179,152.7
20182,131.7
20184,93.2
20186,193.5
20187,187.2
20193,140.1
20195,111.1
20196,96.3
20199,194.5
20200,95.8
20202,97.7
20204,83.2
20205,170.7
20207,156.4
20208,98.2
20209,159.6
20212,201.5
20216,128.2
20218,114.2
20219,119.3
20220,131.7
20222,107.1
20223,157.0
20224,170.2
20226,138.2
20227,93.2
20230,118.5
20232,207.0
20235,116.2
20236,164.0
20238,126.9
20239,80.6
20240,193.6
20241,157.9
20242,110.9
20244,166.0
20246,141.8
20247,189.2
20248,103.4
20249,92.9
20250,150.3
20256,131.4
20257,204.0
20258,155.8
20260,99.6
20261,123.9
20262,121.9
20264,158.6
20265,190.8
20266,87.1
20267,83.1
20268,200.1
20272,130.6
20273,87.0
20274,86.2
20275,105.9
20278,90.4
20280,204.6
20281,186.5
20285,166.7
20287,177.5
20288,95.6
20290,90.8
20292,122.5
20295,89.6
20296,89.2
20297,156.1
20298,105.0
20301,123.9
20304,113.5
20314,112.8
20315,111.1
20316,180.3
20317,161.1
20319,146.9
20322,98.1
20323,91.4
20324,110.0
20327,86.1
20328,98.2
20329,176.2
20334,146.6
20340,131.7
20341,165.2
20342,105.1
20348,191.0
20353,166.6
20354,113.7
20358,128.8
20359,154.5
20365,86.7
20366,168.5
20367,203.5
20368,98.2
20369,198.7
20371,186.6
20374,190.9
20376,142.1
20377,105.6
20378,201.2
20380,136.8
20381,89.6
20383,114.3
20384,114.1
20385,96.2
20387,167.9
20388,202.7
20391,140.6
20392,161.7
20393,118.8
20394,161.7
20395,133.6
20396,197.1
20397,127.2
20399,121.2
20401,134.5
20405,158.8
20407,103.4
20408,96.4
20410,89.3
20411,208.9
20417,151.1
20418,194.2
20419,82.7
20420,126.5
20422,107.7
20424,90.6
20425,174.5
20426,131.7
20430,117.4
20431,142.5
20434,111.1
20435,88.2
20437,161.9
20444,206.7
20448,108.5
20449,109.0
20450,83.8
20452,104.6
20453,114.0
20456,95.1
20460,161.6
20461,129.1
20462,159.0
20464,135.1
20465,104.6
20466,198.7
20469,159.2
20472,88.6
20473,190.2
20474,111.1
20475,136.5
20477,81.9
20478,111.7
20480,109.3
20483,155.1
20485,88.8
20488,103.4
20491,154.3
20493,109.7
20494,103.4
20495,124.6
20499,182.5
20501,149.4
20502,116.2
20503,195.1
20505,162.6
20506,132.3
20508,139.0
20509,93.2
20515,111.1
20518,129.5
20519,158.3
20520,139.9
20522,113.8
20523,189.9
20524,153.8
20529,113.7
20530,189.9
20531,101.5
20532,104.2
20533,104.1
20535,159.9
20542,116.2
20543,179.0
20545,113.6
20547,168.9
20551,116.2
20553,205.0
20554,184.2
20555,116.2
20557,177.1
20558,135.8
20560,171.5
20561,150.5
20564,145.9
20565,193.4
20566,194.9
20568,89.7
20569,181.8
20570,123.9
20571,108.9
20572,86.0
20574,113.5
20578,158.6
20579,147.6
20582,121.7
20583,118.8
20588,145.0
20591,91.1
20592,123.4
20593,171.3
20595,157.2
20596,134.2
20598,165.8
20599,170.3
20601,180.2
20602,198.3
20605,170.8
20606,101.7
20607,142.6
20609,142.3
20610,131.7
20611,159.3
20614,102.3
20619,126.3
20621,92.7
20623,111.1
20626,99.8
20630,172.7
20631,114.6
20632,130.7
20637,134.2
20638,110.6
20643,101.9
20645,133.6
20648,195.2
20649,205.7
20651,126.5
20652,131.4
20657,82.9
20658,98.9
20659,122.1
20660,118.6
20663,149.6
20664,118.8
20665,80.9
20667,160.9
20671,124.8
20672,160.5
20673,153.8
20674,143.7
20675,180.0
20676,173.8
20677,147.1
20678,206.1
20679,183.6
20683,105.4
20686,188.0
20687,207.0
20688,190.9
20689,121.1
20690,129.1
20693,125.0
20694,153.4
20695,163.7
20700,99.0
20703,173.6
20704,115.0
20705,108.5
20706,91.1
20707,88.4
20708,167.8
20710,208.4
20711,205.2
20713,139.3
20714,108.4
20717,148.6
20718,139.4
20719,99.3
20720,126.2
20721,204.5
20723,140.2
20724,136.0
20729,93.4
20731,126.5
20732,127.4
20735,152.2
20736,174.9
20741,100.8
20744,107.0
20745,108.5
20746,183.5
20748,150.6
20749,127.0
20751,204.3
20757,84.2
20759,136.8
20765,203.2
20767,170.9
20768,155.1
20772,121.4
20775,101.6
20776,112.9
20777,162.9
20778,98.1
20781,140.6
20782,205.0
20783,189.0
20786,103.4
20788,102.3
20790,94.4
20792,195.4
20793,168.8
20799,134.2
20802,147.8
20804,106.4
20806,102.3
20807,137.4
20808,173.1
20812,116.2
20816,207.6
20818,179.1
20819,117.8
20823,125.4
20826,103.9
20827,108.5
20828,141.4
20832,80.9
20833,160.2
20834,189.8
20835,151.6
20838,97.9
20840,126.5
20841,141.1
20842,187.8
20846,89.0
20851,168.6
20853,111.1
20854,100.8
20856,159.7
20857,135.9
20858,195.4
20859,161.8
20861,122.4
20862,100.4
20863,175.1
20864,122.5
20867,105.9
20868,123.2
20869,169.0
20870,82.5
20873,204.4
20875,195.1
20880,123.9
20884,84.2
20885,94.9
20887,119.5
20888,149.9
20890,113.3
20891,96.8
20893,135.8
20894,118.8
20897,102.5
20899,169.7
20900,81.7
20901,134.4
20903,209.5
20904,97.5
20907,111.3
20908,116.2
20911,85.0
20912,177.0
20913,148.8
20914,80.4
20916,197.6
20917,167.1
20918,168.8
20921,116.2
20923,194.0
20929,163.2
20930,105.7
20934,118.8
20937,139.4
20939,184.9
20940,154.7
20944,207.5
20947,123.9
20950,179.8
20951,98.4
20952,204.4
20956,83.9
20959,158.8
20962,116.2
20963,193.3
20964,172.2
20965,108.7
20966,134.9
20967,197.0
20969,135.4
20971,130.1
20972,152.6
20973,174.5
20974,119.7
20975,129.1
20979,112.3
20980,191.6
20981,113.1
20982,116.2
20984,112.9
20987,202.6
20988,129.1
20992,130.6
20996,136.7
20997,114.3
21000,140.4
21001,84.0
21002,113.7
21004,151.1
21005,117.7
21009,175.5
21010,151.8
21013,93.0
21014,174.8
21015,136.8
21017,92.3
21018,132.9
21019,98.6
21021,202.9
21022,187.9
21026,102.1
21027,80.5
21029,126.5
21030,96.8
21033,92.5
21043,105.9
21044,126.6
21048,121.3
21049,82.4
21052,159.3
21056,136.8
21057,184.8
21059,160.0
21060,207.2
21067,134.0
21069,126.5
21071,175.0
21073,180.5
21077,95.9
21080,188.7
21083,105.9
21084,172.1
21085,128.4
21088,170.8
21092,170.5
21093,97.3
21094,183.1
21096,151.8
21097,136.8
21098,86.2
21100,145.4
21105,151.3
21107,207.9
21110,129.1
21115,164.2
21117,162.7
21124,105.9
21127,110.6
21135,199.8
21136,176.2
21137,136.8
21138,204.1
21141,190.6
