0,31.3
1,34.9
2,23.6
4,8.0
5,15.9
6,17.6
7,54.5
9,16.7
10,44.2
11,40.1
12,26.2
15,8.2
17,-12.4
19,18.0
20,17.4
21,8.8
24,36.8
25,41.6
26,25.0
27,5.8
31,14.9
32,10.2
34,8.2
36,26.7
37,25.7
40,37.6
41,8.5
42,15.0
43,15.9
46,26.1
48,28.8
50,27.1
52,23.6
54,2.4
56,19.8
58,13.9
59,7.5
61,36.5
62,26.2
68,2.9
69,12.7
71,31.3
76,21.0
78,32.6
79,18.5
80,33.9
82,25.6
84,41.9
86,4.5
90,41.6
91,19.5
94,26.7
95,21.4
97,24.5
99,31.3
100,24.1
106,25.8
108,49.3
109,14.3
112,29.2
113,12.2
118,31.3
121,16.1
122,26.7
123,24.8
129,18.2
130,44.2
131,5.0
133,22.4
137,34.1
140,31.3
147,34.1
148,35.9
149,6.5
150,39.1
156,20.5
158,13.6
160,28.8
161,20.3
163,39.7
164,15.7
165,17.9
166,25.3
169,34.3
170,6.3
171,28.8
181,23.6
185,17.2
187,33.1
192,23.6
194,23.3
201,12.6
202,18.5
203,14.6
206,33.7
210,8.7
211,27.6
212,18.5
213,34.2
214,37.0
215,15.1
217,8.8
223,10.8
225,35.4
226,41.5
227,8.6
229,7.6
230,20.3
231,17.9
232,13.6
233,13.3
235,26.1
236,4.4
237,35.6
239,9.2
241,23.4
242,12.1
243,23.6
245,22.8
247,32.8
249,2.0
251,37.1
253,3.0
256,24.9
257,9.6
259,28.6
261,3.6
263,21.3
264,21.0
265,28.7
268,23.6
272,11.5
273,25.8
274,5.6
276,20.9
277,35.3
283,13.3
285,31.7
286,6.2
293,5.6
295,15.9
296,41.4
297,11.5
298,8.0
299,40.4
300,33.5
303,8.2
306,38.6
307,3.9
309,10.5
310,29.2
312,15.9
314,30.8
315,32.4
317,18.1
318,25.7
319,36.8
321,25.9
322,10.8
323,27.8
330,2.7
333,8.2
339,40.7
341,16.3
343,10.8
345,13.7
346,24.3
349,32.7
351,9.7
353,8.2
358,19.5
362,13.3
364,23.7
366,35.8
367,41.6
368,19.3
369,24.8
371,22.1
372,10.8
373,21.2
375,30.8
376,2.8
377,6.7
378,20.9
381,18.6
382,23.6
383,27.7
384,3.4
385,6.5
386,32.0
388,19.1
389,37.5
391,6.9
393,11.2
394,3.0
396,38.8
397,14.1
403,18.5
405,40.8
409,7.3
410,25.8
412,3.7
413,5.6
415,21.4
417,28.6
419,40.2
421,24.3
422,13.3
425,39.2
429,34.7
432,17.0
433,5.6
434,14.0
436,3.5
440,7.7
442,8.2
447,33.1
451,15.9
452,6.7
453,38.4
461,26.5
462,8.2
463,19.4
466,21.1
469,14.6
470,19.0
471,9.1
472,15.9
474,39.6
476,9.2
479,26.4
480,15.3
481,10.6
482,10.8
485,27.4
486,28.4
487,19.6
488,3.2
489,22.0
491,21.2
492,10.8
496,17.6
499,23.6
500,29.4
502,28.8
504,15.0
508,25.9
509,26.0
512,15.1
513,0.5
514,5.9
515,35.0
516,11.3
521,11.0
522,23.6
523,2.2
525,35.2
526,40.8
527,13.5
530,31.1
532,10.7
533,3.0
535,8.6
537,35.2
540,38.0
541,4.3
542,15.9
547,31.6
548,17.8
549,28.3
552,5.6
558,39.9
560,39.2
561,4.7
562,10.8
566,30.7
569,20.9
572,5.6
574,38.9
576,27.6
579,27.3
580,20.5
581,10.8
582,8.3
585,32.9
587,23.4
591,23.8
592,8.2
594,11.9
595,15.9
596,14.8
597,29.0
598,24.2
601,8.8
602,10.8
603,25.4
604,14.2
612,10.8
613,29.3
614,15.9
617,30.5
619,14.5
620,18.2
621,41.1
622,31.3
623,15.1
624,16.7
625,5.4
628,4.7
629,15.4
631,4.1
632,3.0
638,36.1
642,26.2
643,3.9
644,14.3
645,5.7
647,19.9
651,14.3
652,3.0
653,20.9
655,32.6
657,27.5
662,23.6
665,16.3
668,7.6
670,19.5
671,23.2
672,3.0
673,31.7
674,31.3
676,6.5
678,33.6
680,20.4
681,15.9
682,16.3
683,14.0
684,34.2
685,24.8
688,10.0
690,13.6
692,8.2
695,38.1
698,10.1
699,15.3
701,8.2
704,21.5
705,23.4
706,10.9
708,7.0
709,10.7
710,15.9
711,5.3
712,33.5
715,29.5
716,11.6
720,8.2
722,27.8
724,38.7
725,41.2
727,19.1
729,3.5
730,21.0
731,15.9
732,23.4
738,9.0
741,8.2
745,38.5
746,4.7
750,15.9
752,33.8
754,21.2
755,21.0
756,2.4
758,35.1
760,13.3
764,19.4
765,14.6
766,4.5
767,9.3
769,19.8
771,10.8
775,14.2
776,15.1
777,28.4
778,39.1
779,31.2
781,23.6
782,21.3
784,34.2
785,22.5
786,6.1
788,24.6
790,6.3
791,19.0
792,3.0
798,21.1
800,13.7
801,21.0
802,36.8
806,21.9
809,31.4
810,19.7
811,17.2
812,3.0
813,8.5
818,34.4
821,13.3
822,25.6
823,4.6
829,14.4
831,5.6
833,10.4
836,17.8
839,25.5
840,8.2
841,25.0
843,37.5
846,27.2
847,19.2
849,13.3
851,40.9
852,15.7
853,26.4
855,25.0
858,33.6
859,29.6
861,8.2
863,6.5
865,23.3
867,24.2
869,21.2
870,15.9
871,25.1
873,23.3
877,11.4
879,39.2
880,8.2
881,30.4
885,8.5
888,30.2
889,18.5
893,23.6
894,18.4
895,22.9
896,38.2
897,8.8
899,13.8
900,10.8
902,13.1
905,39.5
907,33.1
910,10.8
911,13.9
912,32.0
915,38.0
920,23.6
922,28.8
923,31.0
925,25.3
928,19.5
929,24.4
931,3.0
934,37.1
935,35.0
936,37.6
937,15.1
941,18.5
942,30.4
946,15.9
948,22.8
950,39.8
951,5.6
953,31.7
956,35.7
959,4.1
960,13.3
962,7.7
963,19.6
968,25.4
970,5.6
971,31.2
973,26.4
975,37.9
979,8.2
982,35.8
983,35.5
986,34.8
989,15.9
990,14.0
992,23.6
994,27.6
998,38.3
999,20.1
1000,10.8
1001,5.3
1002,2.6
1003,15.1
1004,25.2
1007,14.0
1008,40.6
1009,39.0
1010,34.4
1011,0.5
1017,33.6
1018,33.8
1020,10.2
1021,49.3
1023,21.9
1025,37.0
1026,22.9
1027,17.6
1031,22.9
1032,5.3
1033,0.5
1035,31.0
1037,27.5
1038,10.4
1039,22.1
1040,32.1
1041,36.0
1042,6.6
1043,51.9
1049,5.3
1051,11.8
1052,41.4
1054,31.3
1062,21.7
1063,23.6
1066,13.0
1067,33.9
1068,38.7
1073,25.1
1075,37.5
1076,2.9
1078,21.0
1079,33.8
1080,28.3
1081,36.7
1086,35.7
1087,24.9
1089,10.8
1091,35.8
1093,35.3
1094,19.8
1097,25.1
1098,16.8
1100,44.2
1101,7.9
1103,36.5
1111,39.0
1112,-9.8
1116,25.4
1121,10.8
1122,33.6
1124,51.9
1125,5.6
1128,35.2
1129,14.5
1131,22.2
1134,32.0
1135,33.9
1136,32.2
1139,20.6
1140,32.0
1143,32.8
1144,28.8
1145,9.8
1146,33.9
1149,28.9
1150,2.8
1153,31.8
1154,6.9
1158,18.5
1159,11.6
1161,25.4
1162,2.4
1164,40.3
1166,23.3
1167,36.1
1169,10.8
1173,41.4
1174,14.3
1178,27.9
1180,49.3
1181,14.6
1182,6.9
1184,30.9
1185,3.7
1187,4.4
1189,23.2
1190,35.1
1191,33.9
1192,-7.2
1194,36.2
1195,30.7
1197,3.7
1198,15.1
1199,37.2
1200,14.0
1201,30.6
1204,49.3
1207,10.3
1210,4.8
1212,15.7
1214,29.9
1215,33.9
1216,33.5
1218,21.8
1219,17.2
1221,18.1
1222,38.6
1223,5.2
1226,26.2
1229,29.6
1230,22.4
1231,26.0
1233,24.7
1234,10.4
1238,15.9
1239,11.7
1241,26.7
1247,30.2
1249,8.2
1250,27.1
1251,23.8
1252,41.0
1253,41.1
1255,35.7
1257,19.2
1259,16.7
1260,39.1
1261,40.2
1266,20.0
1268,11.9
1269,28.0
1271,-7.2
1273,36.4
1275,34.8
1277,11.6
1279,21.5
1280,9.4
1283,54.5
1288,15.9
1289,37.1
1290,6.1
1292,13.6
1294,33.9
1297,17.7
1301,29.2
1305,33.9
1308,3.7
1311,7.4
1315,22.3
1316,18.5
1318,11.6
1319,21.4
1320,20.3
1323,36.2
1325,23.8
1326,18.9
1329,10.8
1330,32.6
1340,44.2
1341,17.1
1342,2.2
1351,-9.8
1357,38.6
1358,13.8
1359,22.8
1361,17.1
1362,51.9
1365,12.2
1367,4.7
1368,30.2
1369,18.5
1371,3.4
1372,6.2
1374,31.3
1375,42.0
1376,20.5
1381,40.0
1383,27.4
1385,31.3
1386,10.2
1387,23.4
1390,34.7
1391,38.8
1392,18.4
1394,12.6
1397,15.9
1401,41.0
1403,40.5
1406,3.5
1409,8.2
1413,28.8
1414,23.9
1418,7.4
1419,31.3
1420,41.2
1423,2.3
1424,7.7
1425,18.8
1426,18.9
1430,-4.7
1431,39.3
1432,22.4
1436,6.1
1438,27.4
1439,29.1
1441,51.9
1442,20.1
1443,23.2
1444,25.2
1445,25.7
1447,33.8
1450,39.1
1451,25.0
1452,25.0
1453,33.9
1454,3.8
1459,21.8
1461,12.4
1462,32.2
1464,38.7
1465,33.9
1468,36.4
1473,27.1
1476,21.0
1478,29.7
1479,2.1
1481,8.9
1484,22.2
1485,32.5
1486,13.1
1487,13.3
1489,26.5
1493,20.2
1494,12.8
1495,14.8
1499,41.6
1506,40.4
1508,6.5
1509,30.3
1510,-7.2
1511,35.2
1513,32.7
1515,23.5
1516,37.7
1518,7.4
1521,51.9
1525,21.6
1528,20.1
1530,37.5
1531,2.9
1532,40.7
1533,31.3
1535,34.2
1537,40.4
1540,41.4
1543,33.6
1544,32.3
1545,33.9
1547,35.6
1548,34.8
1549,33.0
1550,32.6
1554,3.4
1555,14.2
1556,18.5
1561,10.3
1562,22.2
1563,22.9
1564,4.6
1567,8.2
1570,21.7
1576,23.9
1577,26.2
1578,19.7
1580,31.9
1581,40.5
1583,10.9
1584,11.4
1586,18.2
1587,32.4
1590,-4.7
1591,20.0
1592,35.2
1595,5.8
1596,30.7
1597,26.2
1601,54.5
1604,26.9
1605,6.5
1609,40.1
1610,9.7
1612,31.3
1617,35.0
1618,36.9
1620,40.8
1624,36.5
1628,9.5
1629,7.1
1630,7.3
1633,12.6
1635,23.6
1636,8.7
1637,3.6
1638,12.5
1640,28.2
1641,8.8
1643,36.8
1646,15.9
1651,37.8
1652,26.4
1653,31.0
1654,16.2
1656,20.5
1658,39.1
1660,2.3
1661,32.3
1662,4.7
1666,4.3
1668,29.6
1669,29.6
1670,-7.2
1671,35.6
1673,12.9
1675,24.6
1679,8.4
1681,51.9
1682,16.8
1683,33.2
1685,35.6
1687,27.7
1688,4.4
1690,21.3
1691,26.6
1692,33.9
1696,6.0
1697,27.4
1699,7.8
1702,32.0
1703,31.3
1704,23.8
1705,20.6
1706,25.5
1709,31.4
1710,21.0
1711,31.8
1713,41.3
1715,18.5
1720,36.6
1721,25.0
1722,10.2
1723,9.1
1724,5.1
1726,21.8
1727,10.8
1730,13.9
1731,7.8
1732,13.6
1733,12.6
1735,37.6
1737,27.8
1738,46.8
1740,10.6
1743,18.8
1744,6.3
1746,35.1
1748,4.1
1750,-9.8
1753,9.7
1755,17.3
1759,19.3
1760,29.5
1761,49.3
1762,10.6
1764,21.0
1766,8.0
1772,33.9
1774,18.0
1775,29.8
1779,8.8
1783,28.8
1785,39.4
1791,8.1
1793,3.4
1794,25.8
1795,33.2
1796,15.9
1798,11.5
1800,37.7
1801,18.6
1802,7.4
1807,8.2
1809,24.8
1810,9.9
1811,40.3
1812,25.3
1814,2.4
1816,20.6
1817,33.9
1818,26.2
1819,3.2
1821,5.8
1828,-7.2
1829,11.7
1836,15.3
1837,33.9
1838,40.6
1840,51.9
1842,3.0
1843,20.5
1845,26.6
1846,5.6
1847,32.1
1849,3.4
1851,31.3
1852,20.1
1855,8.4
1861,6.4
1862,23.6
1863,33.9
1864,17.2
1865,3.7
1866,22.4
1869,37.4
1872,28.2
1874,21.0
1876,21.8
1877,9.4
1879,3.0
1882,34.9
1884,14.6
1885,38.9
1886,10.8
1887,32.9
1888,31.7
1892,33.7
1893,42.0
1894,6.4
1897,44.2
1899,8.7
1902,34.3
1904,40.6
1906,21.0
1907,2.3
1908,-9.8
1909,12.3
1911,11.8
1913,4.2
1914,41.1
1915,35.0
1918,32.4
1920,51.9
1927,13.7
1929,33.5
1932,33.9
1935,38.1
1936,9.3
1939,7.8
1942,27.9
1943,28.8
1947,2.6
1948,15.7
1952,10.6
1953,25.5
1954,18.5
1958,32.2
1959,7.7
1963,31.3
1966,8.2
1968,39.5
1972,31.2
1976,28.8
1980,25.3
1981,14.2
1982,34.9
1983,33.9
1985,21.0
1988,-4.7
1991,9.2
1992,26.7
1999,54.5
2000,10.3
2002,9.3
2003,27.7
2007,16.1
2008,5.8
2010,38.9
2011,31.3
2012,20.8
2014,5.2
2019,20.6
2022,39.1
2023,34.7
2024,30.8
2026,3.0
2027,40.8
2028,7.4
2029,39.9
2030,35.1
2032,16.4
2033,23.6
2034,23.6
2036,6.5
2038,3.5
2042,6.2
2044,15.9
2046,25.0
2047,6.4
2049,40.2
2050,23.5
2055,38.9
2057,39.1
2059,5.6
2064,34.2
2066,23.6
2067,18.2
2068,-4.7
2069,32.3
2072,13.4
2073,26.3
2074,23.4
2079,51.9
2080,18.5
2082,21.2
2084,19.1
2086,37.2
2087,41.2
2089,29.0
2090,7.1
2091,33.9
2092,20.5
2094,42.0
2095,38.3
2096,22.0
2097,12.8
2100,20.2
2101,2.9
2102,33.9
2104,32.0
2106,19.5
2107,28.3
2108,41.1
2112,41.1
2113,21.0
2114,6.4
2115,3.3
2117,13.7
2118,35.9
2120,7.2
2121,19.5
2122,3.7
2123,18.1
2124,31.5
2125,10.8
2126,32.6
2129,39.3
2132,32.7
2136,39.7
2137,46.8
2138,10.1
2139,26.3
2140,31.2
2141,7.1
2143,9.9
2144,15.0
2145,11.2
2148,-9.8
2149,23.6
2151,22.4
2152,12.8
2153,39.8
2155,3.6
2158,8.3
2159,51.9
2161,11.0
2162,40.6
2163,18.4
2168,13.0
2170,33.9
2172,9.5
2173,30.6
2174,2.4
2177,4.6
2181,8.7
2182,31.3
2183,31.7
2189,21.7
2191,39.6
2194,15.9
2195,7.9
2196,2.6
2200,38.1
2202,2.1
2205,10.8
2207,10.3
2210,10.7
2213,4.4
2214,2.7
2215,22.8
2216,51.9
2217,11.9
2219,13.7
2221,30.6
2223,18.1
2226,11.6
2228,3.0
2234,6.4
2237,2.2
2238,54.5
2240,22.6
2241,24.9
2244,33.1
2245,42.0
2247,6.9
2249,33.9
2250,6.8
2251,33.9
2253,2.9
2255,40.2
2257,36.0
2258,17.4
2259,32.1
2260,27.1
2261,34.8
2262,36.5
2264,7.6
2267,21.8
2269,39.4
2270,31.7
2273,21.0
2275,25.3
2277,23.3
2278,32.9
2279,31.1
2280,31.6
2282,26.7
2284,13.3
2285,17.5
2288,23.7
2289,31.3
2290,14.0
2291,41.6
2292,40.0
2294,39.7
2295,44.2
2297,36.7
2300,23.9
2301,21.2
2303,12.3
2304,11.8
2306,4.0
2307,-4.7
2313,38.9
2317,34.6
2318,51.9
2319,40.9
2322,22.6
2323,29.4
2324,12.0
2325,6.7
2326,5.9
2327,35.4
2329,40.1
2330,36.5
2334,5.3
2335,5.8
2336,37.3
2338,14.7
2339,28.5
2341,31.3
2342,24.2
2343,16.8
2346,12.4
2347,22.0
2350,32.4
2353,21.0
2354,40.5
2360,14.4
2362,40.9
2364,13.3
2365,9.6
2366,12.4
2368,35.9
2369,2.5
2370,16.5
2371,15.0
2375,51.9
2377,11.6
2379,18.5
2380,3.2
2381,14.9
2384,39.7
2387,-4.7
2392,26.3
2396,12.0
2397,25.3
2398,30.2
2399,51.9
2405,36.5
2408,19.3
2410,33.9
2415,7.9
2416,4.1
2417,4.3
2420,7.5
2421,28.8
2423,37.2
2424,30.8
2428,34.4
2429,30.3
2432,23.6
2433,15.9
2435,5.7
2436,22.3
2438,38.8
2444,8.2
2446,28.1
2447,22.5
2448,25.9
2450,32.7
2451,40.7
2452,8.0
2453,37.6
2454,7.6
2455,41.6
2457,23.2
2462,22.0
2464,4.8
2465,12.5
2466,-7.2
2467,15.0
2469,7.4
2471,11.1
2478,57.1
2479,38.5
2487,27.5
2489,33.9
2491,9.7
2495,14.5
2499,40.0
2500,33.9
2502,10.9
2508,41.8
2509,2.7
2510,13.8
2511,21.0
2513,8.4
2515,5.8
2517,32.9
2520,40.0
2521,24.1
2522,15.3
2524,13.3
2525,24.0
2526,29.5
2534,39.5
2535,46.8
2536,27.1
2544,33.5
2545,41.0
2546,-7.2
2549,15.8
2556,2.7
2557,51.9
2558,28.6
2559,37.7
2561,6.6
2565,3.3
2569,33.9
2572,20.6
2575,8.9
2578,4.2
2579,19.1
2580,31.3
2581,2.9
2583,5.4
2584,24.5
2585,22.9
2588,20.3
2589,3.2
2592,18.5
2593,30.9
2595,31.8
2597,9.0
2599,41.3
2604,8.2
2606,7.1
2607,31.4
2609,39.0
2611,19.1
2612,16.0
2614,39.1
2618,7.0
2623,28.2
2625,-7.2
2628,12.6
2631,23.3
2632,17.0
2634,21.9
2636,54.5
2637,19.2
2638,32.1
2639,11.0
2641,34.6
2642,37.6
2643,38.5
2646,32.2
2648,33.9
2650,14.5
2651,31.0
2653,40.8
2654,14.2
2656,9.1
2658,7.8
2659,19.6
2660,36.5
2662,41.5
2664,36.1
2667,14.0
2669,35.0
2671,23.6
2676,3.0
2677,26.9
2679,15.3
2680,2.3
2681,22.0
2682,13.3
2685,31.7
2686,27.0
2690,10.2
2692,31.3
2693,21.7
2694,44.2
2698,8.0
2700,11.4
2703,24.3
2704,18.9
2705,-7.2
2706,21.6
2707,18.4
2708,8.8
2709,39.6
2712,32.3
2716,54.5
2717,32.0
2718,7.0
2722,20.4
2723,40.1
2725,17.8
2728,33.9
2729,41.5
2731,22.4
2732,35.9
2733,30.1
2734,17.5
2735,16.0
2738,30.0
2740,33.9
2741,18.0
2742,8.1
2743,7.2
2744,41.3
2747,40.3
2750,26.9
2751,18.5
2753,19.7
2760,41.9
2761,36.1
2762,10.8
2764,19.7
2765,36.3
2769,12.8
2770,26.9
2771,20.9
2772,35.2
2773,28.5
2774,51.9
2776,25.1
2777,27.6
2781,16.5
2782,3.5
2785,-4.7
2787,41.0
2794,6.4
2797,49.3
2799,22.4
2801,22.0
2802,21.3
2803,14.1
2804,7.8
2806,11.4
2808,33.9
2809,36.6
2810,34.5
2813,14.3
2816,14.3
2817,18.8
2818,31.6
2820,28.8
2822,17.1
2825,8.1
2826,6.4
2828,5.5
2830,33.6
2831,18.5
2833,19.3
2835,12.1
2836,31.5
2837,16.3
2840,16.3
2842,8.2
2846,25.0
2847,8.9
2849,40.8
2851,28.4
2852,39.1
2853,13.1
2854,13.3
2855,34.7
2857,32.7
2859,6.0
2861,30.4
2864,21.7
2865,-4.7
2866,9.8
2872,24.0
2875,23.2
2876,54.5
2877,20.5
2881,2.1
2882,28.7
2883,11.3
2884,11.0
2885,29.1
2886,33.6
2887,33.9
2888,22.0
2890,36.6
2891,34.3
2895,31.0
2898,33.9
2899,23.1
2900,13.1
2903,34.1
2908,23.5
2910,21.0
2911,41.7
2913,18.2
2914,36.6
2918,2.7
2921,35.9
2922,10.8
2924,34.7
2925,41.7
2926,9.3
2927,8.4
2931,37.1
2933,49.3
2934,14.4
2935,28.3
2936,13.2
2938,34.1
2940,9.5
2941,36.5
2944,6.7
2945,-9.8
2947,18.1
2950,14.4
2951,31.8
2956,51.9
2957,23.1
2958,2.2
2962,39.8
2964,21.9
2967,36.5
2968,6.0
2969,31.2
2970,36.9
2971,17.4
2972,41.5
2973,10.1
2975,4.5
2976,30.0
2978,33.9
2979,6.2
2980,19.9
2991,18.5
3002,8.2
3008,35.1
3009,26.9
3011,38.5
3012,36.5
3013,4.0
3014,5.6
3017,13.0
3019,39.5
3021,10.4
3022,38.8
3023,-2.1
3024,21.0
3026,6.7
3027,6.3
3028,29.6
3029,31.9
3030,25.6
3031,20.7
3033,28.1
3034,18.6
3035,54.5
3036,33.2
3037,6.2
3038,27.2
3040,17.5
3042,39.1
3045,32.4
3046,36.5
3049,39.6
3051,29.3
3052,26.7
3054,32.1
3056,4.0
3057,22.3
3058,36.5
3059,5.9
3060,27.9
3061,35.8
3063,27.4
3066,34.9
3067,15.1
3069,23.6
3071,16.6
3074,2.4
3075,6.8
3077,10.2
3081,13.3
3083,19.5
3086,10.9
3088,23.2
3092,46.8
3093,30.2
3096,2.9
3099,38.9
3100,24.3
3103,-7.2
3104,29.0
3108,35.5
3110,22.9
3115,54.5
3116,2.1
3118,7.5
3119,20.7
3120,32.4
3126,30.6
3127,33.9
3130,20.7
3132,39.8
3134,6.2
3135,3.1
3138,33.9
3140,29.6
3141,6.4
3142,26.6
3143,41.0
3144,8.2
3148,37.8
3149,21.0
3150,29.1
3154,37.2
3156,25.5
3157,41.5
3159,12.1
3161,10.8
3162,21.6
3163,6.8
3164,9.9
3165,15.6
3166,11.1
3167,19.9
3168,18.8
3169,36.5
3170,38.0
3171,2.3
3172,51.9
3173,33.9
3175,23.9
3176,28.9
3177,30.7
3182,16.7
3183,-4.7
3184,16.1
3185,36.7
3187,22.0
3188,2.6
3190,28.1
3192,28.8
3193,13.7
3195,51.9
3196,33.9
3198,7.4
3199,37.1
3203,40.6
3205,8.5
3207,33.9
3209,35.0
3211,17.6
3215,3.5
3216,41.7
3217,26.1
3218,28.8
3219,32.5
3220,24.1
3225,35.9
3226,12.4
3227,28.7
3229,15.9
3231,2.8
3233,34.0
3234,29.3
3236,16.3
3237,19.5
3240,8.2
3241,29.6
3242,11.8
3244,36.0
3245,38.6
3246,16.6
3248,31.9
3251,41.6
3253,37.1
3255,7.7
3260,14.9
3261,31.4
3263,-4.7
3266,35.5
3268,37.8
3270,34.9
3271,17.5
3272,2.2
3274,54.5
3275,39.1
3276,10.7
3278,16.6
3280,41.2
3282,40.2
3283,28.0
3284,32.7
3285,37.7
3286,33.9
3287,8.3
3288,35.9
3289,30.1
3290,29.8
3295,26.8
3296,36.6
3297,36.5
3298,25.1
3299,13.5
3301,36.2
3302,22.1
3305,10.8
3306,2.4
3307,38.5
3308,21.0
3310,31.5
3311,26.0
3312,34.4
3313,34.6
3314,14.7
3317,11.1
3319,7.9
3320,13.3
3321,16.7
3323,4.9
3324,21.1
3325,16.6
3330,34.3
3332,49.3
3334,24.0
3335,17.5
3337,13.6
3339,30.5
3340,11.8
3343,-9.8
3351,28.7
3354,54.5
3357,39.4
3361,36.5
3365,36.5
3366,11.3
3373,24.0
3377,31.3
3381,5.7
3382,15.0
3384,34.8
3388,37.2
3389,18.5
3394,13.0
3395,21.9
3396,12.4
3400,10.8
3401,41.7
3402,21.6
3404,34.8
3405,25.4
3407,19.0
3410,40.4
3411,51.9
3412,14.8
3414,11.9
3418,15.5
3420,31.8
3423,3.0
3424,38.6
3428,6.4
3432,23.8
3433,54.5
3436,5.1
3437,20.0
3442,21.7
3444,33.9
3447,34.3
3448,7.4
3449,25.7
3450,32.6
3451,21.9
3452,5.9
3453,16.5
3454,8.2
3456,36.2
3457,36.5
3463,27.6
3465,32.5
3466,34.5
3467,20.5
3468,23.6
3469,11.1
3470,17.3
3471,8.1
3472,33.5
3475,19.4
3479,15.9
3480,31.5
3482,41.6
3486,32.9
3488,18.9
3489,20.5
3490,44.2
3493,7.7
3494,16.3
3498,19.7
3499,3.1
3502,-7.2
3506,10.1
3508,35.1
3510,20.6
3511,16.5
3513,54.5
3516,34.2
3517,32.2
3518,21.2
3520,41.8
3525,33.9
3529,32.1
3530,21.2
3534,30.9
3535,10.7
3536,33.9
3538,21.5
3541,14.3
3543,11.1
3544,2.6
3546,9.4
3548,21.0
3549,19.7
3551,34.9
3552,35.6
3554,22.1
3556,15.0
3559,10.8
3562,20.4
3563,9.2
3565,4.0
3567,24.5
3570,51.9
3576,15.3
3578,32.8
3581,-4.7
3582,17.8
3583,23.1
3586,41.3
3587,37.7
3588,9.4
3594,51.9
3596,22.6
3597,14.0
3602,3.8
3603,18.7
3604,12.0
3605,33.9
3606,2.4
3610,28.1
3612,17.1
3614,10.3
3616,28.8
3618,21.1
3619,4.7
3621,35.4
3623,10.3
3628,15.9
3629,15.5
3633,31.1
3634,40.7
3637,18.0
3639,8.2
3643,18.7
3645,7.5
3649,41.6
3650,26.1
3652,10.7
3653,23.2
3654,30.9
3655,35.4
3656,26.3
3658,18.3
3661,-4.7
3664,28.9
3665,3.2
3667,12.5
3668,38.7
3669,22.9
3670,17.7
3673,54.5
3674,29.2
3676,9.1
3678,29.8
3679,33.2
3681,33.1
3683,12.4
3684,36.5
3686,15.9
3690,3.0
3695,33.9
3696,23.0
3699,35.4
3705,32.9
3706,21.0
3707,21.0
3710,25.1
3712,31.7
3715,40.3
3716,15.1
3718,13.3
3719,36.2
3722,19.2
3723,12.3
3725,2.4
3726,9.7
3728,28.2
3730,46.8
3732,14.9
3738,20.0
3740,31.5
3741,-7.2
3743,22.0
3746,37.3
3747,22.0
3752,54.5
3756,15.6
3757,12.2
3759,19.5
3760,5.1
3762,30.2
3763,3.1
3764,36.5
3765,35.2
3766,23.1
3767,7.9
3769,9.2
3770,10.4
3771,18.1
3774,35.5
3775,31.3
3776,20.2
3782,10.2
3783,4.4
3785,9.0
3786,39.7
3787,18.5
3788,7.9
3789,6.1
3790,32.5
3791,35.4
3792,35.2
3794,28.0
3796,21.6
3799,10.8
3800,26.3
3804,40.7
3810,54.5
3811,6.3
3812,8.6
3816,33.2
3817,8.3
3818,37.3
3819,16.9
3820,13.6
3821,3.0
3824,35.5
3826,18.2
3829,24.1
3830,3.3
3831,54.5
3833,9.0
3834,6.1
3835,19.0
3837,25.1
3838,10.3
3839,36.3
3842,9.2
3843,33.9
3844,3.2
3846,9.2
3847,18.5
3851,40.4
3852,24.7
3855,36.5
3857,24.0
3862,5.8
3863,41.2
3864,12.6
3866,23.6
3867,29.1
3868,12.7
3872,35.2
3876,4.4
3877,15.9
3879,23.9
3882,36.7
3885,20.0
3886,37.3
3887,32.4
3889,44.2
3892,38.9
3893,34.2
3898,5.2
3899,39.0
3900,-7.2
3902,19.8
3905,33.1
3906,37.5
3909,29.4
3910,39.7
3911,51.9
3913,13.6
3914,9.9
3915,9.4
3919,35.4
3920,9.3
3923,36.5
3924,38.7
3925,17.1
3927,11.0
3928,6.5
3931,34.3
3933,8.4
3935,33.9
3936,13.1
3937,19.7
3938,41.2
3939,38.6
3941,2.2
3943,10.9
3945,24.5
3946,18.5
3948,31.7
3949,32.2
3950,15.0
3955,4.4
3956,37.2
3957,10.8
3959,26.6
3961,26.5
3962,41.5
3965,15.0
3966,30.0
3968,10.8
3969,49.3
3974,26.2
3976,7.1
3980,-7.2
3981,30.0
3983,41.7
3986,21.7
3992,51.9
3994,23.6
3995,5.5
3996,37.8
3997,6.7
3999,17.5
4001,15.9
4003,33.9
4004,3.9
4010,41.0
4015,31.3
4018,24.5
4019,19.2
4024,7.0
4026,15.9
4029,19.2
4030,18.8
4033,17.8
4034,15.2
4036,8.9
4037,8.2
4038,36.5
4039,24.1
4041,14.1
4042,41.1
4043,25.5
4045,12.6
4046,32.0
4047,39.1
4048,25.5
4052,2.9
4055,30.9
4056,22.2
4058,23.8
4059,14.1
4060,-7.2
4067,2.1
4071,54.5
4072,31.9
4074,41.7
4075,32.1
4076,35.9
4079,2.9
4080,3.8
4082,33.9
4087,2.4
4090,30.6
4093,36.5
4094,6.1
4095,40.4
4099,35.8
4104,25.8
4105,21.0
4107,8.6
4108,32.9
4109,38.2
4116,10.8
4118,33.1
4120,39.8
4124,37.3
4127,11.5
4128,46.8
4132,3.3
4133,12.4
4134,24.9
4135,3.4
4138,11.0
4140,-7.2
4142,38.0
4144,15.9
4145,9.7
4148,10.3
4151,51.9
4152,2.3
4153,8.7
4155,16.3
4157,3.6
4160,34.4
4161,38.2
4162,33.9
4166,34.2
4168,15.8
4173,28.8
4174,40.9
4180,6.5
4182,37.4
4183,11.0
4186,18.5
4188,15.5
4197,8.2
4200,15.1
4201,30.7
4207,33.9
4209,37.9
4211,11.0
4214,18.2
4215,22.2
4217,24.2
4218,-2.1
4222,24.4
4223,29.8
4224,10.3
4229,9.7
4230,54.5
4232,33.0
4233,9.7
4234,8.5
4240,36.0
4241,31.3
4242,17.8
4246,8.5
4250,19.1
4252,2.3
4253,36.5
4254,23.5
4255,15.9
4258,31.9
4259,23.5
4261,27.8
4264,23.6
4270,6.9
4271,35.3
4275,33.5
4276,13.3
4278,32.1
4279,5.6
4280,37.2
4282,4.3
4283,33.2
4285,32.1
4286,17.7
4287,44.2
4288,38.3
4296,26.5
4298,-7.2
4300,26.6
4301,40.1
4302,6.7
4303,11.7
4305,21.9
4306,9.9
4307,21.2
4310,51.9
4311,14.4
4314,16.9
4315,8.4
4316,38.3
4322,36.5
4323,17.4
4324,25.8
4325,36.7
4326,27.6
4327,24.7
4328,38.1
4329,15.7
4330,41.4
4331,5.9
4333,33.9
4334,7.3
4335,17.8
4336,5.0
4339,11.2
4340,21.3
4341,11.3
4343,18.0
4344,21.0
4348,39.8
4349,36.2
4350,13.0
4351,14.7
4353,28.7
4356,10.8
4360,22.3
4363,38.7
4364,12.1
4365,6.1
4366,38.2
4367,51.9
4369,30.0
4371,37.6
4372,19.0
4375,19.9
4376,32.7
4378,-7.2
4379,3.1
4381,24.8
4382,8.3
4387,31.7
4388,23.3
4389,12.7
4390,51.9
4391,37.0
4393,12.8
4394,9.6
4396,30.2
4397,4.5
4399,29.6
4401,36.4
4402,36.5
4403,16.2
4404,14.7
4407,12.8
4409,30.8
4410,7.6
4413,28.8
4416,25.3
4422,6.2
4424,15.9
4428,11.5
4432,35.7
4433,22.7
4435,5.6
4437,19.7
4438,38.7
4440,20.4
4441,7.6
4446,39.1
4448,20.6
4449,41.0
4451,17.0
4454,31.6
4457,36.4
4458,-4.7
4465,8.1
4466,5.7
4469,54.5
4470,23.8
4475,30.3
4477,12.2
4481,33.9
4484,33.9
4486,14.9
4488,39.3
4492,36.5
4493,33.6
4494,25.6
4495,31.4
4498,40.8
4499,14.1
4502,23.7
4503,21.0
4504,21.7
4505,19.3
4514,13.3
4516,27.4
4518,35.2
4522,9.9
4527,46.8
4530,10.4
4531,11.4
4532,8.8
4533,25.6
4534,24.3
4535,16.2
4536,16.3
4538,-9.8
4541,26.7
4542,4.3
4543,15.6
4544,30.7
4546,28.6
4547,40.4
4548,13.0
4549,51.9
4550,37.3
4554,15.3
4555,22.1
4559,33.4
4560,33.9
4562,31.4
4563,23.2
4564,35.2
4566,23.7
4567,40.9
4569,14.8
4570,19.5
4571,33.7
4572,31.3
4573,7.4
4576,33.5
4578,2.7
4580,22.3
4581,17.9
4582,7.0
4583,18.5
4584,25.4
4585,8.7
4587,14.2
4588,10.7
4589,33.2
4591,37.0
4593,31.5
4594,5.2
4595,8.2
4598,25.4
4599,8.8
4601,8.4
4602,9.3
4603,16.0
4605,33.9
4607,32.2
4609,23.3
4610,16.1
4612,33.8
4613,39.4
4615,18.2
4616,32.3
4617,-4.7
4620,41.6
4621,19.9
4622,24.1
4624,9.5
4628,54.5
4630,32.4
4631,37.2
4635,27.8
4637,5.6
4639,33.9
4645,39.8
4648,33.7
4649,11.8
4652,33.9
4653,12.9
4656,13.5
4657,24.9
4661,25.8
4662,33.5
4663,23.6
4665,26.2
4666,28.2
4667,17.8
4668,35.3
4669,19.7
4671,7.4
4672,17.9
4673,12.5
4674,13.3
4677,35.2
4679,15.7
4681,35.6
4682,40.5
4684,16.5
4685,41.6
4686,9.8
4687,4.7
4688,35.4
4690,27.9
4691,2.8
4692,11.3
4694,5.0
4697,-7.2
4699,31.5
4700,5.4
4702,10.8
4703,16.8
4708,54.5
4711,10.0
4712,26.8
4713,7.4
4714,13.9
4715,20.5
4716,5.5
4717,25.7
4719,17.3
4720,33.9
4723,2.2
4724,3.9
4726,40.6
4727,39.3
4728,7.7
4730,21.4
4731,33.9
4734,3.5
4735,18.0
4739,18.0
4743,18.5
4744,38.9
4745,31.9
4746,35.2
4747,4.2
4750,41.0
4751,36.8
4753,17.6
4754,10.8
4756,10.7
4757,23.0
4759,39.6
4761,2.4
4763,24.9
4764,11.1
4765,49.3
4767,8.9
4769,12.9
4770,5.6
4772,35.0
4775,28.4
4776,-9.8
4777,36.3
4778,28.9
4779,10.2
4780,36.7
4785,9.9
4786,18.4
4788,2.5
4789,49.3
4792,39.5
4798,26.7
4800,33.9
4802,13.3
4805,5.7
4810,19.4
4811,31.3
4814,7.5
4815,10.0
4816,6.0
4817,16.0
4818,38.0
4819,13.5
4820,38.6
4821,9.9
4823,15.9
4827,9.1
4828,20.8
4829,37.8
4831,22.9
4833,21.1
4834,8.2
4835,18.8
4836,38.7
4838,3.3
4839,36.3
4842,10.3
4843,12.0
4844,36.5
4845,13.7
4846,26.9
4847,3.8
4848,13.1
4850,19.1
4851,4.8
4853,15.1
4854,15.6
4856,-4.7
4857,22.5
4858,19.7
4859,41.9
4860,35.4
4861,21.8
4863,26.6
4868,54.5
4871,9.6
4872,14.0
4873,9.3
4874,37.3
4875,13.5
4879,33.9
4880,10.8
4882,14.3
4883,32.9
4885,5.1
4888,21.8
4890,33.9
4891,10.8
4893,15.8
4894,33.2
4896,33.8
4898,22.0
4901,23.6
4902,17.5
4903,12.2
4904,24.8
4906,41.9
4909,8.6
4913,10.8
4917,37.0
4918,32.9
4919,16.8
4921,11.0
4922,35.7
4925,46.8
4927,7.5
4930,24.4
4931,3.7
4934,29.5
4935,8.9
4936,-7.2
4937,22.6
4939,31.4
4943,12.6
4945,28.1
4947,49.3
4949,41.2
4950,2.1
4952,15.6
4954,22.0
4957,15.5
4959,33.9
4960,37.4
4961,21.3
4963,39.7
4966,9.0
4968,17.6
4969,13.1
4970,31.3
4973,14.9
4975,25.6
4979,2.6
4981,15.9
4982,33.9
4985,25.3
4987,10.8
4989,23.3
4992,12.5
4994,10.8
4995,19.1
4996,14.2
4997,35.9
5005,51.9
5006,27.4
5007,31.5
5008,13.7
5010,20.2
5013,40.2
5016,-2.1
5018,22.9
5019,13.0
5020,20.3
5021,17.8
5027,49.3
5035,17.0
5036,23.7
5038,20.1
5039,33.9
5041,28.1
5045,36.2
5047,37.1
5048,12.3
5051,28.8
5057,18.6
5059,20.7
5062,15.9
5069,29.2
5073,5.6
5076,17.5
5077,11.4
5078,24.1
5079,34.4
5080,40.6
5081,4.7
5082,28.4
5084,41.6
5087,37.3
5088,5.5
5090,16.9
5093,22.7
5095,-7.2
5100,26.4
5101,3.3
5102,4.4
5104,20.1
5106,51.9
5109,39.0
5111,8.7
5112,35.7
5113,2.4
5115,22.7
5116,15.4
5118,33.9
5121,29.9
5122,28.0
5124,35.5
5125,17.4
5130,33.9
5131,13.6
5134,11.4
5137,18.5
5138,37.3
5141,18.5
5143,3.3
5146,38.0
5149,11.1
5150,11.9
5152,10.8
5153,12.7
5164,49.3
5168,19.0
5169,22.4
5170,10.5
5174,17.9
5175,-9.8
5181,27.8
5187,49.3
5189,28.6
5191,2.9
5194,18.2
5195,30.0
5196,37.5
5198,33.9
5199,6.8
5202,39.3
5205,9.3
5207,9.3
5208,18.4
5210,28.8
5219,36.3
5220,38.4
5221,15.9
5223,27.7
5228,33.0
5231,26.6
5232,5.6
5233,32.8
5235,20.1
5236,27.9
5237,19.2
5239,10.7
5240,32.4
5242,36.5
5243,29.1
5247,34.3
5249,3.9
5251,20.8
5252,10.2
5253,18.6
5255,-4.7
5256,14.2
5257,34.5
5259,29.9
5262,29.7
5263,36.7
5264,22.1
5266,51.9
5267,21.3
5268,18.0
5269,31.7
5271,14.6
5275,41.8
5276,14.9
5277,33.9
5279,2.9
5281,28.8
5283,14.1
5284,7.5
5288,33.9
5295,35.1
5296,29.8
5297,4.3
5300,21.0
5301,27.9
5302,24.4
5303,32.6
5306,32.6
5311,10.8
5316,23.8
5317,18.1
5318,30.9
5319,3.2
5320,17.6
5322,9.5
5323,44.2
5325,4.4
5327,4.8
5329,32.5
5331,25.1
5334,40.5
5335,-9.8
5336,37.9
5337,2.6
5341,9.7
5342,34.4
5343,25.3
5346,49.3
5349,32.7
5350,22.4
5351,26.6
5354,28.9
5357,33.9
5361,24.7
5362,23.5
5363,8.4
5365,6.8
5366,8.2
5367,30.1
5368,31.3
5369,40.6
5370,32.8
5371,32.9
5374,11.3
5375,5.6
5380,15.9
5382,31.5
5383,38.9
5386,23.4
5389,34.9
5392,8.2
5393,14.3
5396,12.5
5397,18.2
5399,13.7
5400,3.2
5402,31.3
5405,30.7
5408,25.7
5409,29.5
5411,28.6
5412,40.9
5413,-2.1
5414,5.5
5417,32.8
5418,40.3
5419,14.1
5421,41.6
5425,54.5
5427,26.1
5430,2.8
5432,13.3
5434,33.0
5436,33.9
5437,26.4
5438,18.7
5439,3.1
5441,17.2
5446,9.2
5447,33.9
5449,26.7
5455,34.8
5459,23.6
5461,19.6
5462,2.1
5465,12.3
5467,26.3
5471,13.3
5473,8.5
5475,42.0
5476,11.3
5480,38.5
5481,31.7
5482,41.6
5483,13.1
5488,33.5
5490,34.5
5493,-7.2
5494,29.9
5497,33.3
5499,29.7
5500,34.9
5501,5.0
5503,31.0
5505,51.9
5507,6.5
5508,20.9
5509,36.4
5512,2.2
5514,27.4
5515,40.2
5516,12.8
5517,33.9
5518,10.9
5519,6.6
5524,37.3
5527,23.1
5528,31.3
5529,36.5
5531,32.3
5532,38.8
5533,6.1
5534,28.0
5538,12.1
5539,18.5
5540,32.9
5541,38.8
5543,28.3
5544,38.1
5547,28.2
5548,5.7
5550,2.1
5551,10.8
5552,39.6
5555,33.0
5556,6.6
5557,4.2
5558,26.0
5559,8.2
5562,49.3
5563,27.2
5565,3.7
5567,37.2
5571,10.1
5573,-9.8
5574,22.5
5575,23.6
5578,22.7
5580,37.9
5584,40.4
5585,51.9
5587,4.6
5589,8.4
5590,8.0
5591,8.6
5594,39.8
5597,33.9
5601,24.0
5605,28.1
5606,32.8
5608,31.3
5609,35.3
5611,35.7
5613,15.0
5614,39.9
5616,28.4
5619,15.9
5620,2.8
5623,7.9
5624,22.3
5625,25.2
5629,15.6
5630,8.2
5631,24.6
5632,27.7
5633,20.7
5635,13.0
5636,5.0
5638,23.6
5639,18.9
5640,25.7
5641,36.5
5642,6.5
5650,26.0
5653,-7.2
5654,37.8
5655,36.3
5656,8.9
5657,20.9
5659,17.7
5661,2.6
5663,3.3
5664,51.9
5667,7.3
5668,2.7
5671,27.0
5672,20.3
5675,27.4
5676,33.9
5679,34.2
5680,41.8
5681,18.9
5682,28.9
5684,37.3
5685,13.2
5686,10.7
5687,33.9
5691,34.1
5692,17.3
5693,28.0
5694,27.7
5695,15.4
5697,22.9
5698,21.0
5699,34.9
5701,21.4
5704,2.2
5706,9.1
5707,31.4
5709,13.3
5710,13.8
5711,28.5
5712,28.3
5713,13.9
5715,28.3
5716,17.0
5722,46.8
5724,18.3
5725,2.7
5726,5.6
5728,39.0
5729,40.3
5730,20.3
5733,-9.8
5736,11.9
5737,9.3
5740,38.4
5743,24.8
5744,51.9
5745,18.2
5746,34.7
5747,30.2
5749,12.0
5751,17.1
5753,32.4
5754,2.0
5755,33.9
5764,38.7
5765,13.7
5766,17.0
5767,31.3
5769,7.3
5771,32.6
5772,29.6
5773,3.7
5775,16.2
5776,29.9
5778,15.9
5780,19.0
5781,22.0
5784,5.2
5785,23.3
5786,19.6
5790,10.8
5791,16.7
5793,39.7
5795,29.2
5799,40.8
5800,36.9
5801,49.3
5805,35.1
5807,12.9
5809,37.1
5810,22.4
5812,7.9
5813,-4.7
5815,16.1
5818,30.7
5819,20.1
5820,21.9
5822,22.7
5824,49.3
5825,13.1
5827,30.5
5830,18.4
5834,42.0
5835,33.9
5837,40.4
5839,11.2
5843,3.5
5844,18.1
5847,31.3
5848,20.5
5849,33.0
5851,40.8
5853,18.3
5855,25.4
5856,7.2
5858,25.3
5859,13.3
5860,24.7
5862,21.4
5866,38.5
5869,37.5
5870,5.6
5871,38.2
5876,7.4
5877,4.0
5879,12.3
5880,41.6
5881,26.2
5882,17.5
5884,8.6
5889,18.4
5890,26.8
5892,-7.2
5894,2.4
5895,18.7
5896,4.9
5897,20.1
5898,39.3
5902,25.3
5903,54.5
5905,9.1
5907,37.7
5908,17.1
5910,41.4
5911,38.3
5912,39.9
5914,33.9
5915,28.3
5919,8.2
5923,38.6
5925,26.1
5926,31.3
5927,40.1
5929,23.9
5930,10.6
5934,32.1
5936,31.4
5938,21.0
5940,36.6
5942,18.0
5946,22.6
5948,30.4
5949,10.8
5951,20.0
5956,9.5
5957,38.7
5958,19.4
5959,14.0
5960,49.3
5961,11.9
5962,23.0
5969,4.0
5970,39.9
5971,-9.8
5975,34.3
5981,37.8
5982,34.5
5984,49.3
5989,5.8
5990,10.0
5991,23.1
5994,9.6
5995,33.9
6000,32.6
6001,5.4
6002,41.6
6003,18.1
6004,3.2
6005,37.9
6006,31.3
6008,13.6
6011,4.0
6015,41.2
6018,15.9
6019,29.9
6020,39.2
6021,7.9
6024,26.7
6026,31.9
6027,4.7
6029,8.2
6030,33.7
6033,31.6
6036,28.5
6037,36.1
6039,33.9
6041,36.8
6043,31.2
6046,24.6
6047,10.7
6049,6.7
6050,10.2
6051,-7.2
6052,34.5
6053,21.8
6054,8.1
6056,27.4
6057,23.7
6058,7.3
6059,25.7
6060,23.6
6063,51.9
6065,27.8
6073,35.3
6074,31.3
6076,17.3
6078,8.4
6079,33.4
6081,39.6
6084,7.4
6085,33.9
6087,38.3
6088,15.2
6089,40.8
6091,28.0
6096,23.6
6098,4.2
6099,9.3
6100,15.5
6102,11.3
6103,24.8
6105,21.4
6107,19.1
6108,10.8
6109,26.3
6110,34.0
6112,26.9
6113,12.4
6115,38.2
6116,18.0
6117,38.6
6120,44.2
6121,24.7
6122,41.1
6123,33.1
6124,38.8
6125,41.2
6126,3.4
6127,41.5
6128,16.8
6130,23.4
6131,-7.2
6133,37.2
6136,5.4
6138,28.4
6140,11.8
6142,51.9
6144,39.4
6145,19.9
6149,18.3
6150,6.0
6153,23.0
6154,33.9
6155,24.9
6160,41.1
6163,8.1
6165,31.3
6166,32.6
6170,38.6
6171,27.7
6174,32.8
6175,36.0
6176,18.5
6178,2.3
6180,11.9
6181,39.6
6185,21.6
6186,6.8
6188,8.5
6189,10.8
6190,11.0
6199,4.9
6200,49.3
6201,9.8
6205,28.4
6206,14.6
6207,18.2
6211,-7.2
6212,2.5
6213,21.8
6215,21.8
6222,49.3
6223,27.7
6226,4.9
6227,41.6
6229,16.0
6231,11.0
6233,5.4
6234,33.9
6236,25.0
6237,28.5
6238,40.6
6243,7.9
6245,28.8
6247,15.3
6249,26.9
6252,35.4
6255,25.9
6256,4.8
6257,15.9
6259,9.9
6260,21.4
6261,10.4
6266,3.6
6268,5.6
6270,13.9
6273,9.4
6276,13.8
6277,41.9
6279,39.1
6281,13.0
6282,19.9
6283,24.0
6287,2.0
6288,12.8
6289,19.3
6290,-7.2
6293,19.8
6298,40.4
6301,54.5
6308,18.6
6312,33.9
6314,7.1
6316,11.0
6317,41.5
6319,38.9
6320,37.4
6321,29.7
6322,20.8
6323,14.9
6324,33.1
6325,33.9
6328,26.3
6330,33.5
6336,18.5
6343,27.2
6344,41.1
6345,29.5
6347,13.3
6348,36.1
6349,41.0
6350,5.6
6351,29.8
6352,40.4
6353,8.7
6354,23.5
6357,15.9
6359,46.8
6360,12.7
6370,-12.4
6371,17.3
6373,40.9
6374,3.5
6375,34.6
6380,24.3
6381,16.2
6383,44.2
6384,2.1
6390,15.9
6392,31.7
6393,31.2
6394,31.3
6395,34.3
6401,14.8
6402,35.4
6405,12.4
6406,21.0
6412,30.7
6413,26.8
6414,28.8
6416,12.0
6417,10.8
6419,28.7
6421,38.9
6422,3.9
6424,21.7
6427,20.9
6428,0.5
6429,4.0
6431,2.5
6432,11.8
6434,35.2
6435,2.5
6436,14.5
6437,37.7
6438,51.9
6439,6.7
6442,13.1
6446,2.7
6447,32.4
6448,26.2
6449,33.5
6451,0.5
6452,23.8
6454,9.1
6455,34.2
6457,3.0
6458,10.4
6459,17.3
6460,32.8
6461,54.5
6462,32.7
6466,31.5
6467,3.6
6472,31.3
6476,22.5
6482,38.6
6483,33.9
6485,23.8
6490,18.0
6491,39.9
6492,27.1
6493,29.7
6495,21.0
6496,2.8
6497,19.8
6499,23.6
6500,8.1
6501,14.9
6502,26.3
6503,15.5
6504,40.8
6505,17.3
6506,13.3
6508,29.7
6509,30.4
6514,10.3
6515,10.1
6516,11.5
6517,30.8
6518,44.2
6519,7.3
6520,4.2
6525,9.6
6526,41.4
6527,14.0
6528,36.0
6530,-9.8
6534,22.1
6539,22.3
6540,4.1
6541,51.9
6543,32.7
6544,19.3
6546,3.7
6547,30.8
6548,26.2
6550,21.3
6551,40.8
6552,33.9
6554,25.9
6555,3.6
6556,29.2
6557,6.7
6560,30.0
6563,33.9
6565,5.7
6566,35.6
6568,34.9
6571,27.2
6572,41.2
6573,36.6
6574,5.2
6575,18.5
6576,10.0
6582,36.2
6584,7.8
6586,17.6
6587,10.8
6588,6.0
6589,15.4
6590,13.0
6592,15.5
6594,3.9
6595,8.5
6598,49.3
6599,18.0
6601,9.5
6606,6.8
6608,25.8
6609,-7.2
6610,18.1
6613,13.8
6615,20.2
6616,29.3
6617,41.5
6620,7.9
6621,51.9
6622,14.5
6623,26.0
6624,20.8
6626,2.3
6627,21.1
6628,12.9
6629,30.4
6632,31.3
6633,13.9
6634,31.1
6635,40.3
6639,4.3
6640,23.3
6643,28.8
6647,37.7
6648,32.9
6649,38.7
6650,37.8
6651,5.2
6652,32.0
6656,15.9
6658,13.6
6660,31.8
6661,34.9
6662,24.9
6663,31.2
6664,25.1
6665,18.8
6667,5.6
6670,33.7
6673,34.2
6677,39.1
6680,41.9
6684,7.3
6686,18.3
6688,-7.2
6690,11.9
6692,30.1
6696,25.0
6697,38.9
6698,16.5
6699,41.0
6700,54.5
6703,7.5
6704,17.4
6705,31.6
6706,14.0
6707,7.2
6709,21.4
6711,31.3
6712,24.2
6713,19.9
6716,10.6
6717,17.5
6718,18.1
6719,15.2
6720,34.5
6721,17.7
6722,3.7
6723,33.9
6726,17.8
6727,19.4
6728,2.3
6730,3.8
6732,31.2
6734,18.5
6735,37.5
6737,5.5
6738,27.3
6739,12.6
6741,2.3
6743,23.8
6746,10.8
6748,6.8
6752,36.4
6753,25.5
6757,46.8
6759,25.7
6761,41.5
6763,4.3
6767,31.6
6768,-9.8
6771,27.6
6774,7.7
6776,7.4
6779,51.9
6782,26.3
6785,15.6
6787,29.5
6791,32.7
6792,33.9
6794,20.4
6795,16.8
6796,20.7
6797,25.9
6802,11.3
6803,28.8
6809,6.5
6810,28.0
6811,9.5
6813,17.7
6814,15.9
6815,4.0
6816,30.7
6825,8.2
6826,19.2
6827,7.3
6828,40.7
6831,16.0
6834,34.6
6836,36.5
6838,21.7
6840,13.8
6841,14.9
6842,34.5
6845,41.3
6848,-4.7
6850,25.6
6852,7.5
6854,14.8
6857,31.9
6858,40.5
6859,54.5
6862,13.3
6863,13.4
6864,15.2
6866,22.6
6868,7.0
6871,31.3
6872,2.7
6874,24.4
6881,30.7
6882,36.5
6884,25.8
6885,15.9
6886,16.0
6887,10.5
6888,37.5
6893,21.0
6894,35.8
6895,32.5
6904,13.3
6905,17.9
6906,18.2
6908,36.7
6910,25.9
6911,29.4
6914,8.0
6915,21.7
6916,21.8
6917,41.6
6921,14.6
6924,18.3
6925,2.5
6926,40.8
6928,-9.8
6931,18.3
6932,34.4
6936,35.6
6939,51.9
6940,14.4
6941,18.9
6942,19.9
6943,13.9
6946,36.5
6950,33.9
6954,8.2
6956,18.9
6958,38.9
6959,2.6
6960,9.9
6962,31.3
6963,34.0
6965,4.5
6967,22.2
6968,3.1
6969,17.0
6970,10.0
6973,18.5
6976,2.2
6978,19.6
6979,29.2
6980,27.4
6981,5.6
6982,21.9
6983,5.8
6984,18.9
6985,13.3
6987,15.9
6988,19.6
6989,4.5
6994,7.2
6996,51.9
6998,12.2
6999,5.0
7000,11.8
7001,15.1
7002,19.7
7003,12.6
7006,30.4
7008,-7.2
7009,40.7
7011,31.3
7012,16.6
7014,5.9
7015,34.5
7016,29.8
7018,41.5
7019,49.3
7021,20.7
7022,4.2
7024,30.9
7025,6.9
7026,39.3
7030,31.3
7033,5.2
7034,27.7
7036,23.0
7037,25.0
7038,17.9
7039,40.6
7040,39.5
7041,35.9
7042,28.8
7044,18.2
7048,10.6
7054,15.9
7055,15.2
7058,37.4
7060,24.1
7061,9.8
7065,5.6
7066,14.9
7071,26.3
7073,12.6
7075,39.1
7076,28.8
7077,20.4
7080,23.9
7081,2.3
7084,29.5
7086,4.0
7087,-7.2
7091,9.4
7093,11.7
7098,54.5
7099,31.8
7101,21.1
7103,21.0
7104,31.2
7105,23.7
7107,11.8
7108,2.2
7109,33.9
7111,27.7
7115,24.5
7117,8.6
7119,26.1
7121,33.9
7122,19.3
7131,11.7
7133,18.5
7134,9.6
7135,34.7
7137,29.6
7138,26.1
7139,21.2
7140,33.4
7144,10.8
7146,7.3
7149,24.6
7150,36.4
7154,13.6
7155,46.8
7157,3.6
7159,36.7
7164,38.9
7166,-9.8
7167,14.9
7168,32.5
7174,34.6
7175,39.4
7176,37.8
7178,49.3
7182,20.4
7184,26.7
7185,25.7
7190,36.5
7192,9.5
7196,8.6
7197,20.9
7198,11.5
7199,39.3
7201,28.8
7202,8.4
7203,30.8
7204,36.7
7205,28.1
7206,3.9
7208,11.5
7209,9.3
7211,25.0
7213,15.9
7214,12.1
7215,41.7
7216,4.6
7217,26.7
7218,11.1
7219,33.9
7220,22.7
7221,13.7
7224,10.8
7225,10.5
7231,13.9
7232,28.4
7233,26.2
7235,51.9
7237,23.0
7238,37.6
7239,2.4
7241,28.9
7242,15.3
7243,14.8
7244,5.4
7245,35.7
7246,29.6
7247,0.5
7252,7.1
7253,17.6
7258,54.5
7259,38.6
7260,19.7
7263,19.5
7269,33.9
7270,29.6
7271,26.9
7275,10.1
7276,40.4
7277,7.0
7279,2.2
7280,33.9
7286,35.3
7287,33.5
7288,41.4
7289,10.5
7290,8.2
7291,21.0
7293,32.9
7296,19.3
7297,27.0
7298,33.2
7299,38.5
7301,21.7
7303,10.8
7306,20.7
7308,10.7
7312,39.6
7313,18.6
7315,44.2
7316,31.0
7321,30.0
7324,3.4
7326,-7.2
7329,17.9
7330,39.1
7331,31.2
7335,3.1
7336,34.1
7337,51.9
7340,2.1
7342,24.3
7343,4.1
7345,17.1
7349,31.3
7350,3.4
7353,26.6
7360,31.3
7362,8.8
7364,22.1
7365,14.2
7367,27.2
7368,5.4
7371,18.5
7372,35.0
7373,27.6
7374,33.6
7376,13.9
7378,4.1
7379,37.9
7382,12.8
7383,29.0
7384,10.8
7385,36.7
7386,20.9
7389,32.3
7391,22.3
7392,19.1
7394,18.8
7395,49.3
7397,16.9
7398,39.0
7400,35.7
7402,19.2
7405,8.4
7406,-9.8
7407,35.7
7408,11.8
7413,18.2
7414,34.2
7415,28.5
7416,16.3
7417,49.3
7419,35.9
7421,34.4
7424,18.1
7425,40.2
7427,12.5
7429,33.9
7434,18.5
7435,4.8
7436,24.9
7440,28.8
7442,12.7
7449,25.8
7450,27.8
7452,13.3
7457,10.4
7460,22.9
7461,10.7
7462,25.5
7463,5.6
7464,32.8
7466,29.2
7468,31.9
7469,35.5
7471,30.3
7474,39.1
7478,35.7
7479,25.9
7481,5.1
7483,25.9
7484,30.2
7485,-7.2
7486,19.1
7487,25.6
7488,26.8
7489,14.6
7490,14.5
7492,36.7
7496,54.5
7497,25.9
7499,34.0
7500,10.3
7503,34.9
7507,31.3
7515,33.0
7519,19.5
7520,33.9
7521,10.7
7523,7.3
7528,10.9
7530,25.6
7531,18.5
7532,37.7
7533,6.1
7535,6.0
7536,30.7
7539,25.4
7542,10.8
7545,39.4
7550,23.3
7553,28.0
7554,46.8
7557,28.4
7558,38.4
7564,15.2
7565,-9.8
7568,13.5
7574,39.3
7576,51.9
7577,11.1
7578,2.7
7580,30.0
7581,9.3
7585,20.0
7586,31.7
7588,31.3
7594,41.5
7595,37.0
7598,7.5
7600,31.3
7601,9.7
7603,25.7
7609,23.2
7610,38.6
7611,18.5
7612,39.6
7614,14.0
7615,35.1
7616,39.2
7619,8.5
7622,8.2
7624,17.9
7626,20.4
7628,22.2
7631,21.7
7632,33.9
7633,35.9
7637,33.0
7641,23.1
7644,-4.7
7645,38.4
7646,7.2
7649,20.0
7651,27.7
7652,28.0
7653,4.3
7654,28.3
7655,40.9
7656,54.5
7659,13.6
7660,17.5
7661,4.0
7662,29.9
7665,41.5
7666,10.0
7667,33.9
7668,30.9
7670,25.0
7672,16.8
7675,14.2
7677,31.9
7678,33.9
7679,25.0
7680,23.5
7683,36.8
7685,12.8
7688,3.0
7689,29.2
7690,23.6
7692,22.6
7695,29.5
7696,26.9
7699,24.7
7700,33.9
7701,10.8
7705,9.7
7706,29.1
7707,11.7
7708,2.1
7709,26.8
7710,38.7
7711,8.2
7713,44.2
7714,17.8
7717,6.8
7718,35.6
7719,4.4
7720,37.2
7723,18.7
7725,-7.2
7726,17.4
7727,7.3
7730,6.0
7731,14.9
7732,38.0
7735,31.3
7736,51.9
7737,29.4
7741,18.3
7743,13.1
7745,22.0
7746,39.1
7747,33.9
7748,39.9
7753,14.9
7755,32.1
7756,16.3
7757,21.7
7758,31.3
7762,6.0
7763,40.6
7764,12.2
7765,19.2
7766,2.2
7768,4.1
7769,23.0
7770,15.9
7771,15.5
7772,33.5
7775,18.6
7777,23.2
7778,7.3
7780,29.3
7782,10.8
7783,16.3
7786,18.6
7787,16.1
7788,15.0
7792,8.2
7793,49.3
7796,37.7
7800,36.5
7801,12.4
7804,-7.2
7805,32.8
7806,25.5
7808,20.9
7809,13.8
7811,7.7
7813,35.9
7814,10.1
7815,23.2
7816,51.9
7818,38.5
7821,41.9
7825,2.7
7826,33.0
7827,33.9
7830,35.5
7831,34.8
7833,36.7
7835,31.2
7837,20.1
7838,28.8
7840,40.3
7841,18.3
7844,3.8
7845,26.9
7848,34.4
7849,12.7
7850,38.7
7851,15.9
7855,22.5
7857,18.4
7859,8.9
7860,33.9
7862,5.6
7864,15.3
7865,3.9
7866,26.5
7867,23.4
7868,3.2
7870,26.3
7871,36.9
7872,36.5
7874,31.9
7875,10.5
7876,28.7
7878,2.5
7879,32.8
7880,27.5
7881,34.9
7883,-7.2
7886,21.0
7888,21.4
7895,51.9
7896,35.8
7898,34.9
7900,25.0
7902,21.5
7904,35.6
7906,33.9
7911,15.5
7914,8.1
7916,12.7
7918,33.9
7919,10.4
7922,17.6
7923,12.8
7924,2.5
7926,14.7
7927,3.7
7929,21.0
7933,10.2
7935,32.1
7937,17.1
7938,29.7
7940,14.0
7941,10.8
7945,22.4
7946,41.3
7947,24.9
7949,21.9
7952,46.8
7954,27.6
7955,10.9
7957,12.0
7963,-9.8
7964,2.8
7969,15.5
7970,35.1
7971,32.5
7974,51.9
7975,3.8
7977,28.3
7979,19.3
7981,8.7
7983,26.7
7984,12.8
7985,28.0
7986,34.3
7987,33.9
7988,3.8
7989,11.3
7990,5.6
7991,38.5
7993,26.0
7995,32.5
7997,15.3
7998,31.3
8001,13.2
8003,35.7
8005,2.7
8006,9.6
8008,14.5
8009,18.5
8014,3.6
8015,5.9
8019,31.8
8020,8.2
8022,28.6
8023,20.8
8024,23.3
8025,20.4
8026,26.4
8029,40.2
8031,31.3
8033,6.5
8034,14.4
8035,22.5
8042,-4.7
8044,19.0
8045,12.7
8047,38.4
8051,22.9
8054,54.5
8058,8.4
8059,2.1
8060,22.9
8061,31.0
8062,35.6
8064,14.8
8066,31.3
8067,27.7
8068,37.0
8069,29.9
8076,34.2
8077,36.5
8082,13.1
8083,24.8
8084,8.4
8086,27.9
8088,21.0
8090,10.8
8091,40.8
8093,19.2
8094,31.5
8096,16.4
8099,13.3
8100,23.9
8103,30.7
8104,32.3
8105,8.6
8109,18.8
8111,41.6
8112,21.2
8114,39.1
8116,10.4
8117,36.0
8118,19.7
8119,30.0
8120,17.4
8121,9.3
8122,25.6
8123,-7.2
8125,28.3
8127,27.7
8128,29.3
8131,16.9
8133,41.3
8134,49.3
8135,23.2
8136,37.7
8137,32.6
8139,20.7
8143,22.0
8145,33.9
8151,13.8
8152,7.9
8153,17.3
8154,16.5
8155,15.6
8157,31.3
8162,14.5
8163,26.9
8164,25.7
8165,2.9
8166,18.8
8167,8.1
8168,18.5
8170,7.3
8171,31.0
8172,10.8
8176,21.0
8177,20.0
8179,22.1
8180,10.8
8183,25.2
8186,41.2
8187,37.4
8189,11.1
8192,49.3
8198,29.2
8199,24.9
8202,3.4
8203,-9.8
8206,34.5
8207,32.5
8208,19.1
8209,35.0
8211,36.9
8212,30.6
8214,49.3
8217,27.1
8222,19.9
8223,28.8
8224,24.1
8225,33.9
8226,34.4
8228,41.4
8234,25.2
8237,31.3
8239,30.1
8241,4.8
8243,33.6
8244,18.8
8245,14.6
8246,10.1
8249,15.9
8250,23.0
8251,41.6
8255,37.1
8257,23.8
8259,27.0
8260,5.6
8262,3.6
8263,20.1
8266,10.4
8267,22.6
8270,36.5
8273,16.1
8275,4.6
8281,21.8
8282,-7.2
8284,4.3
8288,25.2
8289,16.8
8293,51.9
8294,41.5
8295,32.5
8296,27.1
8297,8.7
8300,35.1
8302,10.4
8304,33.9
8305,12.5
8307,22.5
8308,18.4
8312,23.0
8313,36.4
8316,33.9
8317,40.4
8319,29.4
8321,17.9
8323,8.0
8324,25.7
8328,21.0
8329,29.3
8331,9.2
8332,39.4
8334,33.5
8335,26.1
8339,10.8
8340,27.3
8342,15.3
8343,5.5
8344,37.1
8345,23.9
8347,8.2
8349,24.7
8350,46.8
8352,33.6
8354,22.9
8356,17.5
8359,28.2
8361,-9.8
8362,32.5
8363,22.4
8364,7.4
8367,34.3
8368,28.0
8371,21.5
8373,51.9
8374,38.6
8376,17.5
8378,32.4
8382,40.6
8383,3.5
8385,33.9
8386,6.7
8388,20.2
8389,7.3
8390,21.2
8391,7.9
8395,24.2
8396,28.8
8397,17.5
8400,26.3
8403,11.2
8407,13.0
8408,18.5
8411,30.3
8415,28.5
8417,36.0
8418,28.5
8419,8.2
8421,26.3
8422,20.2
8423,3.8
8424,30.6
8427,3.8
8429,33.9
8440,-4.7
8442,21.6
8444,20.4
8447,26.6
8448,36.5
8449,33.3
8450,36.6
8451,41.9
8453,51.9
8454,9.6
8455,16.2
8456,19.8
8457,34.0
8460,19.7
8462,31.6
8463,32.6
8464,33.9
8467,35.6
8468,28.3
8473,37.2
8474,6.0
8475,36.5
8478,15.2
8479,27.3
8480,29.3
8481,32.7
8482,19.6
8484,38.2
8485,16.3
8486,21.0
8487,27.7
8488,23.0
8489,26.7
8490,29.0
8492,31.6
8493,22.7
8495,30.4
8497,13.2
8498,13.3
8502,3.8
8503,16.7
8504,22.4
8509,44.2
8510,10.4
8511,40.9
8512,14.5
8513,14.3
8514,21.3
8515,4.1
8520,38.8
8521,-9.8
8522,6.1
8524,8.1
8525,11.1
8526,27.9
8528,14.9
8530,4.0
8532,51.9
8534,18.0
8535,41.6
8536,6.6
8538,27.1
8540,17.7
8541,39.4
8542,23.4
8543,5.0
8544,31.3
8545,3.5
8546,27.6
8549,37.1
8553,20.0
8554,19.9
8555,31.3
8556,4.1
8557,37.3
8564,11.3
8566,18.5
8567,40.9
8570,34.2
8572,27.1
8576,16.3
8577,22.5
8579,10.8
8580,12.5
8582,41.1
8584,25.0
8586,13.7
8588,38.6
8590,49.3
8595,41.6
8596,34.8
8599,18.9
8600,36.2
8601,-9.8
8602,40.2
8606,34.6
8610,4.7
8612,46.8
8613,10.7
8616,7.4
8617,14.8
8619,10.7
8620,21.9
8621,28.5
8624,33.9
8625,36.7
8628,16.2
8629,39.8
8633,16.6
8634,30.3
8635,28.8
8636,8.4
8638,38.4
8639,28.8
8640,28.5
8641,11.3
8642,22.4
8645,40.5
8647,15.9
8648,33.0
8651,10.3
8652,3.5
8655,24.6
8658,8.2
8660,5.5
8662,24.4
8665,38.9
8667,28.5
8668,27.7
8669,39.1
8674,41.8
8675,11.1
8677,9.0
8680,-7.2
8681,5.6
8685,36.2
8688,31.5
8689,4.8
8691,54.5
8692,15.9
8695,31.6
8696,23.5
8699,25.3
8700,33.9
8702,31.3
8705,3.0
8709,20.7
8711,10.3
8712,13.7
8714,17.4
8715,31.3
8717,20.8
8718,12.2
8719,9.1
8722,6.9
8723,31.7
8726,21.0
8729,24.9
8730,23.8
8731,28.0
8733,38.9
8737,10.8
8740,21.5
8743,31.6
8744,38.9
8745,26.4
8746,19.0
8748,19.7
8749,44.2
8753,15.5
8756,39.9
8760,-9.8
8764,37.9
8765,5.1
8770,28.6
8771,51.9
8773,18.2
8775,24.1
8777,27.8
8782,39.7
8783,33.9
8784,37.6
8785,6.0
8787,33.5
8788,14.0
8789,12.9
8792,21.2
8795,31.3
8796,30.0
8797,4.3
8799,25.6
8801,34.7
8802,10.1
8805,21.5
8806,18.5
8807,20.0
8808,3.0
8809,41.8
8812,25.7
8813,30.8
8815,7.0
8817,8.2
8823,18.2
8827,33.9
8830,28.6
8832,41.9
8835,40.8
8836,32.8
8839,-4.7
8840,3.1
8841,8.1
8850,40.5
8851,54.5
8852,27.4
8854,40.8
8855,32.0
8856,25.0
8860,27.8
8862,31.3
8863,17.4
8865,34.8
8866,6.7
8869,37.6
8870,18.6
8871,20.1
8873,33.9
8874,6.9
8875,31.9
8879,41.6
8881,18.6
8885,21.0
8887,40.1
8888,2.1
8889,41.9
8891,31.9
8892,38.6
8893,13.1
8896,13.3
8897,34.5
8900,38.9
8902,7.4
8904,36.0
8906,7.1
8907,41.6
8908,29.2
8910,41.2
8913,12.7
8914,25.5
8916,3.6
8918,38.0
8920,-7.2
8921,10.4
8923,19.5
8927,18.9
8929,10.8
8930,18.8
8931,51.9
8934,16.3
8936,31.6
8938,5.8
8939,36.6
8940,26.6
8941,15.1
8942,33.9
8943,27.4
8947,13.0
8948,18.1
8951,13.0
8952,3.1
8953,33.9
8954,8.6
8955,11.8
8960,36.3
8961,4.5
8963,14.2
8965,18.5
8969,17.8
8970,16.4
8972,37.3
8974,7.6
8975,34.4
8976,34.5
8977,8.2
8978,6.4
8979,17.3
8981,21.6
8983,7.1
8984,10.7
8987,26.2
8989,24.7
8992,33.3
8993,16.3
8998,-4.7
9003,38.2
9004,17.3
9005,26.5
9007,15.4
9010,54.5
9011,25.3
9014,8.3
9018,9.3
9021,28.8
9022,29.4
9025,17.0
9026,37.2
9032,36.5
9040,34.5
9041,13.9
9042,3.8
9044,21.0
9052,10.7
9053,36.3
9055,33.7
9056,13.3
9057,34.6
9061,14.9
9066,40.9
9067,36.5
9068,31.7
9069,15.4
9072,4.5
9073,30.9
9077,10.3
9078,-7.2
9081,39.5
9082,40.7
9086,33.2
9087,39.0
9089,12.2
9090,54.5
9091,24.0
9093,21.2
9094,9.2
9095,38.4
9097,11.1
9099,2.0
9101,31.3
9102,20.8
9103,11.6
9104,11.3
9106,12.1
9107,16.4
9108,17.1
9109,31.6
9113,33.9
9115,5.3
9119,29.5
9120,13.7
9123,35.2
9124,18.5
9125,8.0
9126,5.7
9128,12.4
9129,33.3
9131,20.3
9132,22.7
9135,25.6
9136,10.8
9137,14.7
9138,4.5
9140,37.0
9142,2.3
9147,44.2
9153,2.6
9154,14.9
9158,-9.8
9159,11.8
9160,21.8
9161,19.4
9164,5.8
9165,9.8
9168,29.9
9169,49.3
9170,34.2
9171,22.1
9172,4.4
9173,30.9
9175,23.4
9176,40.6
9177,5.4
9182,31.3
9184,10.2
9185,5.4
9186,5.7
9190,4.6
9193,31.3
9194,11.2
9201,21.3
9202,18.5
9204,15.9
9205,27.3
9206,39.8
9207,2.6
9208,33.9
9209,5.1
9210,20.2
9211,3.8
9212,28.9
9213,27.2
9216,10.8
9221,14.8
9226,14.0
9227,51.9
9231,15.2
9232,20.2
9234,4.1
9238,-2.1
9241,27.7
9242,28.1
9244,2.1
9245,36.5
9250,49.3
9251,34.9
9252,28.3
9253,11.8
9255,34.3
9256,4.9
9262,33.9
9265,39.7
9266,9.2
9267,31.7
9268,2.5
9270,3.3
9271,9.4
9273,28.8
9274,4.2
9275,40.4
9276,19.3
9279,15.4
9280,27.9
9281,39.7
9283,38.4
9284,13.3
9285,2.8
9288,15.1
9291,35.2
9295,5.6
9296,8.7
9299,31.6
9300,5.8
9302,33.5
9304,3.1
9305,18.4
9306,41.6
9312,3.5
9316,14.6
9317,12.2
9318,-9.8
9319,31.5
9320,24.7
9322,2.8
9323,41.3
9324,18.1
9325,37.7
9326,10.2
9329,54.5
9332,31.6
9338,7.6
9339,7.4
9340,33.9
9341,7.5
9342,3.5
9344,41.6
9347,11.3
9351,41.1
9352,31.3
9353,7.2
9354,28.6
9356,3.9
9359,17.1
9360,28.2
9362,5.8
9363,18.5
9365,28.5
9366,26.6
9367,3.9
9369,5.0
9374,10.8
9375,32.3
9376,12.2
9377,14.3
9382,10.9
9384,6.0
9386,11.1
9387,49.3
9388,9.0
9390,9.3
9395,17.2
9397,40.9
9398,-9.8
9399,33.9
9400,8.3
9401,31.3
9403,12.2
9407,35.3
9408,18.5
9409,51.9
9412,13.3
9415,7.0
9417,14.2
9418,22.0
9419,13.9
9420,33.9
9422,34.2
9423,26.4
9424,19.1
9425,2.2
9432,28.8
9434,12.5
9436,22.5
9437,19.2
9441,12.7
9442,31.8
9443,31.2
9444,15.9
9446,25.3
9447,16.3
9449,19.5
9452,20.2
9453,28.8
9455,5.6
9456,27.0
9460,36.7
9462,11.7
9465,39.1
9469,28.5
9471,24.0
9473,27.0
9477,-7.2
9478,9.1
9479,20.9
9482,11.3
9483,18.2
9486,33.0
9487,15.4
9488,54.5
9490,9.1
9492,17.3
9494,40.4
9495,16.8
9496,15.3
9497,35.9
9498,12.7
9499,33.9
9501,32.6
9503,17.6
9504,8.3
9506,33.5
9511,31.3
9516,36.9
9517,22.4
9518,26.8
9519,18.7
9521,14.0
9523,21.0
9525,12.7
9526,33.3
9527,16.8
9529,12.0
9530,36.0
9531,29.9
9532,8.4
9534,10.8
9537,37.1
9540,33.1
9541,40.0
9543,39.0
9544,17.8
9545,46.8
9549,30.8
9551,28.7
9552,15.5
9554,24.4
9555,29.9
9556,-9.8
9557,30.0
9562,18.3
9565,32.5
9568,49.3
9569,37.2
9571,25.1
9572,37.5
9573,31.9
9574,8.2
9575,10.1
9578,38.4
9580,33.9
9583,32.2
9584,17.5
9586,39.0
9590,8.0
9591,31.3
9592,6.1
9596,21.0
9599,8.3
9600,20.3
9601,27.8
9602,39.4
9603,15.9
9606,40.0
9610,31.8
9611,23.9
9612,11.0
9613,12.9
9614,8.2
9615,39.6
9617,13.5
9619,23.9
9620,22.0
9624,33.9
9625,19.2
9628,28.8
9633,3.0
9635,-4.7
9636,33.4
9640,17.7
9642,23.5
9643,13.8
9644,20.8
9648,54.5
9649,27.6
9654,26.6
9657,32.1
9659,31.3
9662,32.4
9663,33.5
9666,5.1
9667,5.8
9668,36.4
9669,29.0
9670,33.9
9672,22.0
9676,6.1
9677,37.9
9681,21.0
9682,22.6
9683,9.9
9684,20.5
9685,3.2
9687,2.9
9691,34.3
9693,10.8
9694,21.0
9699,17.2
9700,20.9
9703,8.6
9704,41.6
9706,35.2
9707,2.2
9709,5.8
9710,23.5
9713,18.9
9715,21.3
9716,-7.2
9717,24.2
9725,30.5
9727,24.2
9728,51.9
9735,7.6
9736,31.3
9737,25.0
9739,31.3
9742,6.7
9744,41.2
9750,31.3
9751,41.2
9754,17.9
9755,9.9
9761,18.5
9762,32.7
9763,33.3
9766,19.7
9767,9.4
9768,27.7
9769,35.5
9770,31.9
9771,41.7
9772,27.3
9773,10.8
9774,17.5
9775,30.1
9776,15.8
9778,18.2
9783,38.7
9784,9.7
9785,49.3
9786,6.4
9791,7.5
9792,39.2
9796,-7.2
9798,36.4
9800,25.5
9801,38.0
9802,2.5
9803,17.8
9804,24.9
9805,22.2
9806,28.6
9807,49.3
9810,41.7
9813,6.4
9818,27.7
9819,33.9
9821,30.1
9822,17.3
9823,13.7
9824,20.4
9826,26.8
9827,20.1
9828,28.9
9829,18.5
9830,28.8
9836,37.6
9838,11.0
9841,13.3
9847,15.1
9850,26.0
9852,3.3
9853,8.2
9854,40.2
9855,6.3
9856,16.0
9858,32.9
9860,3.1
9861,18.1
9863,30.7
9864,39.1
9866,24.7
9868,12.9
9872,25.4
9873,32.5
9875,-7.2
9876,5.3
9878,11.1
9879,12.9
9880,12.9
9881,21.0
9882,28.6
9883,35.3
9884,28.3
9885,10.2
9886,51.9
9888,29.4
9890,23.3
9894,6.0
9896,3.8
9897,31.3
9898,24.5
9899,33.9
9901,12.6
9902,31.1
9903,40.2
9904,36.6
9906,21.7
9909,10.7
9910,33.9
9912,5.0
9913,12.0
9915,23.8
9918,6.1
9919,2.4
9920,13.3
9921,18.5
9926,28.2
9927,25.6
9928,28.3
9931,32.9
9932,10.8
9933,3.9
9935,14.5
9939,38.0
9940,8.5
9941,38.5
9943,8.0
9944,46.8
9946,24.5
9948,37.3
9951,36.1
9952,39.0
9953,18.2
9955,-12.4
9956,23.8
9959,3.3
9962,40.6
9963,37.0
9964,26.1
9965,11.9
9967,44.2
9971,7.8
9972,40.2
9973,32.8
9975,12.3
9976,37.8
9978,39.4
9979,28.8
9980,14.1
9986,12.4
9988,8.2
9991,23.6
9992,4.4
9996,14.8
9997,5.0
9998,4.5
10001,21.1
10002,10.8
10004,41.4
10005,5.8
10007,35.5
10008,39.1
10012,6.0
10014,-4.7
10017,38.8
10020,17.3
10021,5.2
10023,33.5
10026,6.0
10027,46.8
10028,30.1
10029,5.5
10031,21.8
10032,10.1
10033,7.4
10034,30.2
10037,25.3
10039,26.2
10044,14.4
10045,35.9
10046,2.6
10047,7.4
10051,38.2
10052,10.8
10053,28.8
10054,2.2
10056,40.8
10058,22.8
10059,34.1
10062,5.5
10063,5.7
10064,54.5
10065,7.3
10066,23.3
10067,36.0
10068,14.0
10069,7.5
10072,21.4
10073,29.9
10074,32.9
10075,26.3
10076,40.8
10077,31.3
10079,21.1
10080,22.4
10081,21.6
10086,13.8
10087,19.1
10089,26.2
10090,26.2
10091,11.6
10094,33.5
10096,5.2
10097,38.7
10099,22.0
10101,13.3
10103,26.6
10104,6.4
10105,41.4
10108,6.9
10109,25.1
10110,13.5
10111,12.0
10115,-9.8
10118,8.1
10120,15.9
10122,37.1
10124,5.0
10127,44.2
10128,11.5
10129,38.8
10131,10.7
10132,4.1
10135,25.9
10137,19.3
10138,28.5
10139,26.2
10140,17.5
10141,18.3
10142,12.1
10143,15.8
10149,8.7
10151,8.2
10163,49.3
10167,14.9
10168,32.3
10169,21.9
10170,14.5
10173,5.0
10174,7.6
10175,16.5
10176,21.0
10177,21.5
10178,34.3
10179,39.4
10180,20.7
10182,23.7
10183,30.2
10185,13.0
10186,23.0
10187,38.4
10188,33.9
10190,19.0
10192,26.2
10195,22.3
10196,41.3
10197,25.9
10198,41.2
10200,3.2
10201,13.3
10202,6.2
10203,41.6
10205,30.0
10206,15.6
10209,20.1
10211,39.6
10212,38.7
10213,-2.1
10217,10.3
10218,16.6
10224,22.2
10225,49.3
10227,37.5
10228,36.1
10231,9.4
10232,27.5
10233,5.5
10235,8.2
10237,28.8
10238,18.2
10243,32.4
10244,16.5
10245,16.7
10246,12.4
10247,37.0
10249,21.1
10251,15.9
10253,28.5
10254,5.3
10259,36.4
10263,51.9
10264,28.2
10265,13.0
10266,35.6
10267,2.2
10269,34.7
10270,22.4
10271,40.2
10274,18.8
10275,26.2
10276,9.2
10277,3.6
10282,30.0
10283,19.8
10284,34.3
10286,37.1
10287,2.1
10288,31.3
10289,27.5
10294,34.5
10297,18.4
10298,26.0
10300,10.8
10301,28.9
10304,41.5
10306,34.2
10307,6.0
10308,7.4
10309,7.6
10310,20.9
10312,8.7
10313,-4.7
10316,22.1
10318,6.5
10321,16.0
10325,33.7
10326,49.3
10327,8.5
10329,11.2
10330,24.1
10333,9.2
10336,24.2
10337,13.4
10338,28.8
10339,23.4
10340,20.8
10343,36.7
10347,23.0
10348,16.3
10350,13.3
10353,26.2
10354,25.8
10356,3.3
10360,12.9
10362,54.5
10363,3.6
10366,32.1
10368,12.7
10369,26.2
10373,6.6
10374,16.9
10376,31.3
10377,33.3
10380,30.2
10382,39.4
10383,15.9
10387,3.2
10388,28.8
10389,36.1
10391,33.0
10392,9.8
10394,40.7
10398,39.7
10399,39.1
10400,8.2
10406,8.6
10407,27.7
10408,25.7
10409,38.9
10410,2.3
10412,-2.1
10413,39.2
10414,13.6
10422,27.6
10423,39.4
10424,51.9
10428,16.4
10430,21.6
10431,41.2
10433,26.0
10434,20.6
10436,31.3
10438,11.6
10439,7.1
10440,23.6
10445,36.1
10447,2.9
10449,18.5
10451,14.0
10458,26.9
10461,38.4
10462,49.3
10464,30.5
10467,15.2
10471,14.1
10472,26.5
10474,21.0
10475,36.9
10476,7.0
10477,32.5
10479,32.4
10480,5.8
10482,28.2
10484,13.5
10485,24.2
10486,36.5
10489,34.0
10492,13.5
10493,37.4
10495,7.2
10496,3.5
10499,13.3
10500,5.4
10501,22.4
10502,24.2
10505,26.4
10507,2.9
10509,10.9
10511,15.8
10512,-2.1
10513,41.3
10514,24.4
10515,30.4
10516,3.0
10520,41.8
10523,20.6
10524,51.9
10529,25.4
10530,6.6
10532,7.8
10536,31.3
10537,10.9
10538,28.4
10540,31.0
10541,30.7
10543,12.0
10544,38.7
10545,11.6
10547,30.8
10548,25.9
10549,15.9
10550,2.5
10552,34.6
10557,24.1
10559,40.3
10561,51.9
10567,38.6
10569,33.4
10570,25.7
10572,14.2
10573,26.2
10576,32.7
10583,23.8
10586,13.1
10587,33.9
10589,25.0
10592,31.5
10594,35.4
10596,26.1
10597,19.2
10599,10.8
10602,27.5
10603,29.6
10604,16.4
10605,8.1
10606,26.3
10607,23.7
10609,2.6
10611,-2.1
10612,4.7
10614,3.9
10617,15.3
10618,20.4
10620,11.3
10621,32.2
10622,16.9
10624,51.9
10626,37.7
10627,5.3
10628,14.7
10630,19.8
10631,5.7
10632,10.9
10634,28.6
10635,4.8
10636,28.8
10640,25.5
10641,24.1
10644,7.6
10645,10.8
10646,2.8
10648,13.2
10649,13.3
10650,21.2
10651,17.9
10652,26.6
10655,27.6
10657,36.0
10658,13.8
10660,14.1
10661,51.9
10663,33.0
10667,22.0
10668,38.4
10670,14.9
10671,37.1
10672,2.4
10673,13.3
10674,26.2
10675,9.4
10677,31.8
10680,38.0
10686,31.3
10689,9.0
10691,14.1
10692,2.2
10693,3.3
10694,5.2
10695,30.4
10698,10.8
10700,14.3
10709,30.8
10710,15.7
10712,-4.7
10713,39.7
10714,17.9
10715,6.3
10716,23.4
10717,14.6
10718,13.3
10719,40.3
10721,39.1
10723,17.4
10724,49.3
10727,35.4
10730,24.5
10732,17.2
10733,8.5
10734,8.6
10735,20.1
10736,28.8
10737,11.6
10738,32.5
10739,10.9
10740,7.8
10741,33.8
10742,29.0
10743,13.6
10747,9.3
10748,10.8
10752,10.9
10754,5.3
10756,27.6
10758,38.9
10759,7.6
10760,17.5
10761,54.5
10765,3.8
10768,2.8
10770,35.1
10773,28.8
10775,26.2
10780,17.7
10783,38.2
10784,29.6
10785,26.0
10786,31.3
10788,19.7
10794,6.0
10795,13.8
10796,8.3
10797,7.6
10799,8.2
10800,7.2
10804,14.1
10806,18.3
10807,23.7
10808,32.8
10810,0.5
10815,38.2
10816,16.4
10817,11.6
10818,9.0
10820,18.2
10821,54.5
10823,26.2
10825,21.0
10826,41.6
10827,2.2
10831,10.9
10832,7.0
10833,33.9
10834,16.2
10835,3.3
10836,10.6
10839,35.6
10840,25.5
10844,22.0
10846,14.1
10847,26.2
10850,33.2
10852,34.9
10854,2.3
10857,8.0
10858,18.7
10859,26.2
10860,28.9
10864,3.9
10865,25.1
10866,27.7
10869,10.5
10871,-9.8
10872,26.8
10873,21.6
10875,21.5
10881,26.1
10884,41.6
10887,2.1
10889,27.8
10890,9.4
10891,25.3
10893,15.7
10896,21.0
10901,6.0
10903,7.8
10905,35.7
10908,17.1
10909,5.6
10910,30.7
10912,13.2
10913,21.7
10914,22.6
10917,16.7
10918,40.8
10920,51.9
10923,14.4
10926,31.1
10930,25.2
10933,28.8
10935,26.9
10937,37.9
10941,11.1
10944,13.4
10945,31.3
10948,33.2
10952,31.1
10957,10.8
10959,41.1
10960,7.5
10961,11.4
10962,40.5
10963,28.0
10964,20.7
10965,38.6
10968,23.4
10970,-4.7
10977,5.0
10978,15.3
10979,13.6
10981,31.4
10982,35.5
10983,49.3
10984,19.8
10985,33.3
10986,6.7
10987,13.8
10990,32.3
10991,9.8
10992,26.6
10993,38.5
10995,26.2
10996,38.8
11001,28.8
11004,41.0
11006,19.1
11007,18.8
11008,10.8
11009,19.1
11011,4.3
11012,9.1
11014,20.8
11015,37.9
11017,18.7
11018,7.0
11020,54.5
11023,33.4
11026,8.4
11028,5.5
11031,30.0
11032,31.3
11036,14.8
11039,23.9
11040,18.3
11045,28.8
11047,5.0
11053,30.9
11054,4.4
11055,7.3
11056,4.8
11057,6.6
11058,8.2
11059,21.1
11060,23.9
11066,39.1
11069,0.5
11070,3.0
11071,27.2
11074,21.1
11076,19.1
11078,15.4
11079,7.4
11080,54.5
11082,9.9
11086,21.5
11087,23.6
11088,25.4
11090,4.9
11092,31.3
11093,7.5
11095,34.7
11096,22.7
11097,13.4
11102,22.5
11103,18.6
11105,26.2
11108,38.5
11110,5.4
11113,13.4
11115,8.1
11116,14.5
11118,26.2
11119,2.9
11123,3.2
11124,31.9
11127,20.1
11128,15.5
11130,-7.2
11131,38.3
11132,24.8
11133,23.5
11134,38.3
11137,7.9
11143,44.2
11144,11.7
11147,29.9
11148,10.3
11149,12.4
11150,15.8
11152,28.3
11155,21.0
11157,22.1
11161,17.2
11163,26.5
11165,7.1
11167,5.6
11168,21.1
11174,40.6
11175,30.5
11176,6.1
11179,28.4
11180,54.5
11182,10.1
11183,29.3
11186,18.5
11188,24.8
11189,37.3
11190,15.6
11192,28.8
11193,10.4
11194,23.0
11198,3.6
11199,5.9
11200,13.0
11201,36.8
11204,31.3
11208,34.6
11209,34.2
11210,8.5
11211,19.1
11212,13.7
11213,19.2
11214,36.6
11216,8.2
11219,37.1
11223,36.9
11226,16.8
11228,0.5
11231,34.2
11236,21.5
11239,54.5
11241,41.7
11242,14.6
11247,15.8
11251,40.5
11252,33.9
11253,38.4
11257,21.6
11258,35.4
11260,28.9
11262,14.6
11265,26.2
11267,32.1
11270,26.5
11271,41.1
11275,12.4
11276,19.7
11277,21.0
11279,13.7
11283,19.0
11284,8.6
11285,34.6
11286,25.1
11287,30.3
11288,35.2
11289,-9.8
11290,2.9
11291,18.3
11293,7.5
11294,2.2
11297,18.5
11298,7.2
11299,24.7
11301,44.2
11305,15.1
11310,23.4
11312,15.4
11315,21.0
11316,6.4
11317,34.7
11318,4.2
11319,18.9
11320,7.1
11321,19.9
11322,18.7
11324,21.7
11325,25.9
11326,11.3
11327,5.6
11329,14.8
11333,2.9
11334,19.6
11335,33.1
11338,51.9
11339,12.3
11340,37.1
11344,36.7
11349,4.9
11351,26.2
11352,25.0
11355,14.0
11357,36.7
11360,28.3
11363,33.9
11365,38.0
11367,9.4
11369,33.5
11373,13.7
11374,21.7
11376,10.8
11377,24.0
11378,36.3
11381,39.4
11382,30.0
11383,31.2
11384,2.3
11385,38.4
11387,40.9
11388,-4.7
11389,30.9
11390,20.5
11393,37.1
11401,49.3
11404,16.9
11405,36.6
11413,28.8
11415,13.7
11416,28.2
11417,20.4
11419,10.1
11423,28.0
11425,13.3
11428,23.2
11431,5.7
11434,20.1
11436,29.2
11437,39.9
11438,54.5
11441,41.4
11444,7.8
11445,11.7
11446,19.8
11447,31.2
11448,8.2
11451,28.8
11452,4.2
11453,24.7
11455,30.1
11456,14.7
11457,30.7
11458,17.8
11459,18.0
11461,31.2
11463,28.8
11464,2.5
11465,9.9
11466,27.2
11468,28.8
11475,8.2
11478,35.9
11480,33.4
11483,34.3
11484,19.1
11487,0.5
11488,2.2
11491,4.7
11492,7.5
11494,33.8
11496,8.1
11497,34.9
11498,54.5
11503,35.6
11504,37.7
11506,30.8
11511,31.3
11514,22.7
11515,22.1
11520,12.7
11521,17.5
11522,12.1
11523,40.6
11524,26.2
11525,23.7
11527,10.2
11529,32.1
11531,18.9
11532,20.1
11534,25.1
11536,26.2
11537,2.9
11541,33.6
11543,8.7
11544,41.1
11546,23.6
11548,-9.8
11553,18.2
11555,31.0
11557,27.5
11560,44.2
11561,29.9
11563,17.2
11567,36.1
11569,27.6
11570,12.1
11571,38.7
11572,37.6
11573,37.1
11574,23.6
11579,26.0
11582,3.0
11583,41.4
11584,38.7
11586,8.2
11590,13.2
11591,30.6
11593,4.1
11594,36.7
11596,7.8
11597,54.5
11600,26.9
11602,32.5
11603,5.7
11604,24.6
11605,10.6
11606,4.0
11609,28.1
11610,26.2
11615,37.6
11616,2.0
11617,6.3
11621,15.3
11622,31.3
11632,17.7
11634,10.8
11635,21.0
11637,33.5
11638,23.2
11639,29.6
11643,30.3
11644,4.4
11645,37.1
11646,10.7
11648,-7.2
11649,23.0
11651,22.4
11653,27.6
11655,31.1
11658,3.4
11660,46.8
11665,12.2
11667,4.7
11669,13.3
11672,28.8
11673,12.9
11674,4.6
11677,18.2
11679,37.7
11682,15.6
11684,13.3
11686,29.5
11689,35.3
11690,9.6
11693,27.4
11695,6.1
11697,54.5
11698,22.6
11699,10.7
11700,14.4
11701,14.8
11703,22.2
11704,9.9
11707,27.0
11709,2.5
11710,28.8
11711,38.9
11712,22.7
11713,14.7
11714,13.3
11715,6.4
11718,35.6
11720,20.0
11722,28.8
11727,12.5
11728,5.6
11735,10.8
11736,39.1
11737,3.5
11738,37.5
11739,33.6
11740,28.3
11741,18.2
11742,26.3
11743,29.8
11745,27.8
11746,10.2
11747,-7.2
11748,30.1
11755,19.4
11756,6.3
11757,22.6
11759,46.8
11763,17.6
11764,41.2
11767,22.7
11771,26.2
11773,18.9
11774,5.4
11775,24.9
11777,35.1
11782,17.4
11785,10.8
11789,16.2
11791,31.4
11792,22.9
11796,28.6
11797,54.5
11798,8.4
11800,4.6
11801,36.8
11802,30.8
11803,36.6
11806,15.3
11808,41.2
11809,31.3
11810,10.3
11811,9.6
11813,16.3
11815,23.6
11816,25.5
11818,18.9
11819,19.6
11820,8.0
11822,28.8
11824,16.8
11827,16.6
11828,11.6
11833,11.9
11834,15.9
11835,28.2
11836,32.8
11839,22.4
11841,13.3
11844,17.5
11847,-9.8
11848,28.4
11849,5.8
11852,38.2
11853,30.0
11855,15.4
11858,3.7
11859,44.2
11860,29.3
11861,23.6
11864,12.7
11865,19.0
11867,23.9
11868,26.2
11869,10.3
11870,34.6
11872,23.6
11875,33.1
11876,2.3
11879,33.5
11881,15.6
11882,8.3
11884,8.2
11885,35.0
11886,9.2
11888,32.2
11889,19.2
11890,24.4
11895,49.3
11898,27.9
11899,12.2
11902,4.8
11903,16.8
11904,31.5
11906,4.4
11907,14.8
11909,23.6
11919,37.0
11920,16.8
11921,33.9
11922,14.0
11926,6.3
11928,11.5
11929,34.2
11930,20.7
11933,13.3
11934,9.6
11939,38.6
11940,23.4
11941,24.6
11943,20.9
11945,-4.7
11946,37.4
11954,35.7
11956,27.6
11957,32.6
11958,49.3
11960,11.0
11965,36.6
11966,35.8
11970,31.3
11971,40.0
11972,33.7
11977,20.8
11978,38.8
11979,40.0
11983,13.3
11985,6.6
11986,37.2
11987,22.1
11988,7.6
11990,7.1
11993,31.3
11994,28.1
11995,38.9
11996,54.5
11997,9.9
11999,33.2
12001,4.5
12003,19.7
12004,5.3
12005,4.9
12006,35.1
12008,28.8
12010,30.7
12013,13.1
12015,9.7
12018,29.0
12020,31.3
12021,21.6
12022,37.5
12024,40.6
12025,16.0
12026,28.3
12029,36.0
12030,29.7
12031,19.9
12033,10.8
12034,20.8
12035,32.3
12037,35.4
12039,33.3
12040,38.1
12044,39.4
12045,29.1
12046,-7.2
12047,25.3
12052,21.0
12053,17.0
12054,30.4
12055,19.4
12056,32.9
12057,18.1
12058,49.3
12059,20.2
12060,13.8
12066,26.3
12068,30.9
12069,17.1
12070,28.8
12074,36.2
12078,9.8
12081,33.2
12082,2.6
12083,13.3
12084,26.6
12086,16.7
12088,8.5
12089,35.0
12090,13.3
12091,7.5
12095,54.5
12096,29.0
12098,29.3
12099,16.6
12101,33.2
12102,27.0
12103,40.3
12106,9.3
12108,28.8
12111,35.5
12112,25.2
12113,32.4
12117,11.8
12119,27.0
12121,28.8
12124,2.5
12126,2.9
12128,29.7
12129,21.1
12131,11.7
12133,10.8
12135,4.0
12142,6.6
12144,21.7
12145,-7.2
12148,27.6
12150,6.6
12151,38.3
12154,15.2
12157,46.8
12158,31.8
12160,5.8
12161,4.8
12164,30.4
12168,38.4
12169,18.8
12170,26.2
12172,3.2
12175,3.3
12180,18.1
12181,24.4
12183,10.8
12186,30.7
12187,28.8
12194,35.8
12195,54.5
12197,38.4
12199,25.9
12201,36.5
12204,38.7
12205,10.1
12207,14.7
12208,31.3
12211,22.3
12212,30.5
12216,16.3
12217,37.8
12220,28.8
12225,26.0
12226,6.3
12230,24.8
12232,15.9
12234,20.9
12239,5.7
12240,12.1
12241,11.7
12245,37.8
12246,-9.8
12247,22.2
12248,18.5
12250,27.3
12251,36.1
12253,29.2
12256,11.6
12257,8.2
12258,44.2
12259,37.1
12260,5.7
12262,41.8
12266,21.8
12268,7.5
12270,23.6
12271,28.3
12272,18.9
12274,7.9
12276,22.7
12277,14.4
12279,23.5
12280,12.6
12282,8.2
12284,37.6
12290,38.1
12294,51.9
12296,41.5
12298,21.9
12302,7.1
12305,2.1
12306,34.4
12307,26.2
12308,29.6
12313,31.4
12314,28.3
12315,2.8
12318,17.6
12319,31.3
12321,4.0
12326,14.2
12331,31.9
12332,10.8
12333,33.6
12337,14.8
12340,25.6
12342,24.4
12343,15.5
12344,-4.7
12345,10.3
12347,7.7
12348,37.1
12349,18.0
12350,28.1
12352,31.2
12356,49.3
12359,37.2
12363,29.8
12364,9.9
12368,28.8
12369,11.4
12370,37.9
12374,35.8
12375,38.4
12377,17.3
12378,30.5
12382,13.3
12384,35.3
12387,10.0
12388,2.5
12389,38.3
12393,4.3
12394,51.9
12395,3.5
12397,4.1
12398,34.8
12399,25.5
12400,4.6
12401,19.7
12406,26.2
12407,6.6
12414,2.1
12415,39.6
12417,36.1
12419,28.8
12422,23.3
12423,3.8
12424,23.1
12426,41.3
12428,11.2
12431,10.8
12435,30.0
12437,13.1
12443,15.4
12444,-7.2
12445,37.2
12448,26.0
12450,9.2
12451,29.3
12452,26.9
12454,11.2
12456,46.8
12457,38.9
12460,30.3
12463,27.3
12465,18.7
12466,5.5
12467,32.8
12468,17.8
12469,26.2
12470,23.4
12472,27.7
12475,22.5
12477,34.4
12479,7.6
12481,10.8
12482,7.5
12484,27.4
12486,22.8
12487,16.0
12489,41.4
12491,32.4
12492,14.1
12493,51.9
12496,20.4
12499,29.9
12500,12.3
12502,20.3
12504,2.1
12506,15.9
12507,31.3
12509,30.7
12512,4.9
12516,35.1
12517,41.9
12519,28.8
12520,3.5
12521,16.0
12522,23.9
12525,10.5
12526,33.2
12527,11.8
12531,10.8
12534,36.5
12537,19.3
12540,39.2
12541,26.2
12543,26.7
12544,-7.2
12546,13.6
12548,7.6
12549,24.3
12550,41.5
12552,31.9
12553,7.6
12556,46.8
12559,18.9
12560,11.3
12561,41.9
12565,31.3
12566,16.2
12568,26.2
12570,3.2
12571,31.1
12572,18.2
12574,21.4
12575,21.2
12576,36.7
12578,22.4
12579,21.1
12580,36.8
12581,8.2
12582,7.0
12583,23.2
12584,34.4
12587,10.7
12588,39.1
12589,19.3
12590,23.0
12592,28.6
12593,49.3
12597,16.3
12598,5.5
12599,28.2
12601,37.2
12605,21.0
12609,33.3
12610,8.5
12611,39.0
12612,8.9
12613,8.4
12617,36.5
12619,19.0
12620,19.4
12623,22.6
12625,29.6
12628,2.4
12629,30.0
12630,13.3
12632,9.8
12634,27.7
12636,5.4
12638,17.8
12640,34.7
12643,-4.7
12644,8.8
12650,24.0
12651,27.6
12652,29.0
12653,30.6
12654,40.7
12655,51.9
12657,2.0
12659,13.7
12663,25.3
12665,34.3
12667,31.3
12668,24.6
12673,6.2
12675,14.9
12680,13.3
12681,26.9
12683,21.2
12688,8.1
12689,14.9
12690,26.1
12692,51.9
12696,21.8
12697,13.9
12703,24.0
12705,26.2
12706,9.5
12707,24.3
12709,40.4
12711,23.3
12712,14.7
12717,39.0
12718,31.3
12719,38.7
12720,39.6
12721,13.6
12723,32.9
12724,6.4
12725,39.9
12726,17.5
12729,21.3
12730,10.8
12731,25.3
12732,24.9
12733,40.1
12739,7.6
12741,40.3
12742,-4.7
12745,36.5
12746,36.7
12747,16.0
12748,5.7
12749,23.3
12750,5.2
12751,6.6
12752,41.1
12754,49.3
12757,23.0
12758,3.6
12760,36.9
12761,16.4
12766,3.7
12767,28.8
12768,30.7
12771,9.3
12774,12.8
12778,30.2
12779,9.2
12780,13.3
12781,39.9
12782,24.4
12783,37.6
12786,16.0
12787,20.5
12788,4.0
12791,11.3
12792,51.9
12793,2.7
12795,7.7
12796,9.8
12797,6.9
12798,31.2
12804,8.0
12805,28.8
12808,27.3
12809,4.6
12810,22.3
12816,35.4
12817,31.3
12819,3.4
12820,13.0
12821,24.9
12822,40.8
12825,18.1
12826,27.7
12827,15.8
12829,10.8
12832,41.8
12833,8.5
12834,36.0
12835,18.3
12838,10.4
12839,6.8
12842,24.4
12843,-4.7
12844,17.4
12845,37.5
12847,2.5
12849,40.1
12851,27.6
12852,2.8
12853,7.4
12855,46.8
12856,12.5
12857,8.9
12858,17.4
12859,30.4
12860,7.6
12861,30.1
12862,25.0
12865,16.5
12867,26.2
12869,20.8
12872,33.7
12874,27.4
12877,41.8
12879,10.8
12880,29.9
12883,15.1
12884,37.4
12885,29.6
12886,34.3
12888,32.5
12889,14.2
12892,54.5
12895,39.8
12898,40.4
12899,16.7
12900,18.3
12903,33.1
12905,28.8
12911,21.8
12913,4.0
12914,17.2
12915,38.1
12916,33.6
12917,28.8
12918,16.5
12921,14.2
12922,39.6
12923,10.8
12924,15.2
12925,4.6
12926,17.2
12928,19.2
12929,24.0
12930,8.2
12932,23.5
12934,34.9
12941,-2.1
12947,16.2
12948,37.0
12949,9.9
12952,31.9
12953,51.9
12955,12.7
12956,9.9
12957,13.9
12958,31.7
12959,11.1
12961,39.6
12962,16.1
12965,31.3
12966,23.9
12967,19.2
12970,8.4
12971,18.7
12972,21.8
12973,19.4
12974,17.7
12976,14.0
12977,14.5
12979,15.9
12980,8.2
12982,36.4
12984,34.5
12987,20.9
12989,23.0
12990,2.2
12991,46.8
12995,22.3
13002,26.4
13003,21.0
13004,11.7
13008,32.9
13010,28.0
13014,32.9
13016,33.9
13018,26.4
13020,10.7
13026,35.2
13027,12.1
13028,13.3
13030,11.8
13034,41.0
13036,19.2
13037,25.9
13041,-4.7
13043,15.5
13044,23.4
13045,16.2
13047,32.5
13049,33.6
13052,14.8
13053,51.9
13055,4.4
13057,41.8
13058,3.3
13060,9.0
13061,12.8
13063,20.5
13064,31.3
13066,31.3
13070,2.3
13071,20.3
13077,13.2
13078,13.3
13083,38.7
13084,32.3
13085,32.3
13087,24.7
13089,29.9
13090,51.9
13092,19.9
13096,38.6
13099,21.6
13100,7.7
13101,40.9
13102,14.6
13103,26.2
13108,27.4
13111,38.9
13114,28.7
13115,40.8
13116,33.9
13117,2.2
13119,24.5
13120,3.1
13121,18.9
13124,15.4
13126,41.7
13127,6.4
13128,13.3
13131,3.5
13134,7.3
13137,29.9
13139,2.2
13140,-4.7
13143,41.7
13145,2.9
13147,9.4
13148,24.5
13149,14.5
13150,15.7
13153,49.3
13154,37.4
13156,7.6
13161,20.6
13165,31.3
13166,12.6
13169,29.4
13170,28.9
13172,11.3
13175,11.0
13178,10.8
13179,21.7
13182,36.3
13191,54.5
13193,32.3
13196,9.5
13203,28.8
13206,33.9
13207,31.0
13208,6.0
13210,7.7
13212,28.3
13213,25.0
13214,13.0
13215,31.3
13218,36.8
13219,18.0
13220,9.4
13224,20.4
13225,12.6
13227,24.1
13228,8.2
13232,35.6
13233,17.2
13235,9.3
13237,28.7
13240,0.5
13241,6.4
13245,4.0
13246,16.5
13247,10.9
13248,9.7
13250,30.6
13251,54.5
13255,16.0
13257,13.7
13259,40.2
13261,12.4
13263,33.9
13266,32.3
13268,41.1
13269,33.9
13270,35.0
13272,27.0
13273,25.4
13274,15.0
13276,26.2
13278,5.1
13279,28.6
13281,38.9
13282,15.8
13283,16.3
13284,32.2
13287,10.8
13288,23.6
13292,20.2
13293,3.3
13294,32.6
13295,7.4
13296,9.5
13300,-9.8
13305,35.8
13308,18.6
13311,10.0
13314,44.2
13320,19.7
13321,17.4
13322,41.9
13324,7.6
13326,21.0
13327,5.5
13329,14.7
13331,21.0
13333,40.5
13335,30.8
13336,32.5
13338,5.6
13339,31.9
13340,32.4
13343,12.3
13345,6.1
13349,51.9
13352,32.1
13353,3.1
13358,12.3
13359,6.7
13360,41.0
13361,28.2
13362,26.2
13368,17.7
13369,2.6
13371,26.9
13374,4.4
13375,31.3
13380,24.8
13383,5.4
13385,35.3
13387,10.8
13388,11.6
13391,33.6
13396,11.4
13397,26.7
13398,15.4
13399,5.0
13400,-4.7
13401,31.8
13402,39.6
13404,14.4
13407,3.3
13410,15.2
13411,26.6
13412,46.8
13413,25.6
13414,7.7
13415,34.8
13416,38.6
13419,30.2
13421,18.8
13422,11.1
13423,34.2
13424,28.8
13426,39.9
13427,40.1
13431,10.6
13432,33.3
13435,35.1
13436,23.2
13437,10.8
13440,24.2
13442,40.3
13450,54.5
13451,14.3
13453,15.8
13455,39.4
13456,28.3
13462,31.3
13463,28.0
13467,4.3
13468,16.8
13470,34.6
13474,28.8
13476,18.0
13477,16.7
13478,36.4
13480,7.8
13481,9.0
13482,30.9
13484,6.3
13487,8.2
13489,12.2
13494,20.9
13495,32.7
13496,19.7
13497,20.7
13498,0.5
13499,26.3
13500,4.6
13505,30.7
13506,13.7
13510,54.5
13512,3.0
13514,13.4
13516,12.4
13517,37.8
13522,31.3
13524,22.9
13525,30.3
13526,27.9
13530,11.9
13531,37.3
13533,16.9
13534,38.6
13535,23.6
13537,5.4
13541,3.5
13546,28.1
13547,26.2
13548,8.3
13554,41.3
13556,21.4
13558,6.7
13559,-9.8
13561,27.7
13562,14.8
13563,18.3
13565,29.3
13566,6.6
13569,28.9
13572,20.7
13573,44.2
13575,7.1
13576,38.1
13578,40.4
13585,21.0
13592,34.4
13595,38.4
13596,10.5
13597,5.6
13598,8.5
13600,6.5
13603,19.1
13604,29.4
13606,5.3
13608,51.9
13611,4.1
13612,22.1
13616,11.1
13617,26.7
13621,28.8
13624,8.3
13627,25.7
13628,11.8
13629,24.7
13630,5.0
13632,14.9
13633,31.3
13634,10.7
13636,20.4
13637,33.1
13639,6.6
13640,3.1
13641,7.5
13643,22.6
13644,20.0
13646,10.8
13648,2.0
13649,27.7
13652,15.9
13653,25.8
13654,26.8
13655,31.2
13656,16.9
13657,9.9
13659,-7.2
13663,12.2
13669,14.7
13670,2.4
13671,49.3
13672,41.5
13673,2.2
13674,33.0
13677,17.1
13681,34.3
13682,11.8
13683,26.2
13684,21.8
13686,26.5
13688,37.5
13689,31.8
13693,14.4
13696,13.3
13697,15.8
13699,4.2
13700,25.8
13704,22.1
13706,20.1
13707,17.9
13709,54.5
13712,11.5
13713,33.2
13714,12.9
13718,26.2
13720,30.8
13721,31.3
13722,10.2
13725,18.3
13726,29.6
13731,29.2
13732,13.9
13733,28.8
13746,8.2
13749,4.8
13750,30.4
13752,7.8
13753,33.6
13755,23.7
13756,5.9
13757,0.5
13758,5.0
13759,11.7
13760,24.0
13762,7.3
13763,8.9
13764,3.9
13768,54.5
13774,32.0
13775,6.0
13777,11.8
13778,17.0
13779,6.0
13780,14.4
13782,31.3
13786,8.0
13787,5.9
13788,23.4
13794,23.6
13796,23.9
13798,16.5
13799,11.4
13800,3.3
13802,24.0
13803,9.9
13804,31.2
13805,37.3
13806,28.8
13807,28.9
13814,22.9
13815,30.9
13817,27.5
13818,-7.2
13819,10.9
13820,35.6
13822,11.5
13824,24.6
13825,28.7
13827,5.4
13828,39.5
13830,21.2
13831,44.2
13833,11.8
13834,17.2
13837,2.5
13839,32.0
13843,25.7
13844,21.0
13845,14.3
13846,21.4
13850,21.3
13851,3.8
13852,2.9
13854,7.2
13855,12.3
13856,5.6
13859,30.7
13861,33.2
13862,40.7
13863,38.5
13865,20.3
13867,19.3
13868,51.9
13869,12.8
13870,16.6
13874,33.8
13875,33.8
13880,28.8
13881,28.9
13883,35.5
13884,14.8
13886,9.2
13887,20.4
13890,23.2
13892,31.3
13893,5.2
13896,6.4
13899,33.2
13900,32.1
13902,26.9
13903,33.9
13905,10.8
13908,14.2
13911,12.4
13914,16.5
13915,26.2
13916,7.7
13917,17.8
13918,-7.2
13921,15.5
13923,34.9
13924,26.0
13925,20.1
13929,21.9
13930,49.3
13933,11.5
13936,19.8
13937,29.4
13939,6.7
13940,32.2
13942,26.2
13944,22.0
13948,18.6
13951,7.7
13952,19.0
13953,25.4
13954,18.0
13955,10.8
13957,7.4
13959,18.1
13960,35.2
13963,38.9
13965,19.6
13966,10.8
13967,57.1
13969,3.0
13971,16.5
13972,10.3
13974,5.9
13977,23.8
13978,36.1
13979,21.1
13980,31.3
13981,13.5
13985,41.7
13990,8.6
13991,7.6
13992,28.8
13994,29.5
13995,39.1
13998,32.5
14001,13.5
14004,17.2
14005,10.8
14006,4.8
14008,13.9
14009,17.6
14010,17.3
14013,21.8
14015,10.2
14017,-7.2
14019,10.7
14026,13.9
14028,29.2
14029,46.8
14030,4.9
14034,20.3
14038,33.2
14039,29.4
14040,9.0
14043,23.6
14046,28.8
14047,17.0
14050,13.8
14053,11.1
14054,26.0
14055,8.2
14057,41.6
14059,31.5
14060,10.3
14062,38.9
14063,12.5
14064,3.1
14066,49.3
14067,12.0
14070,14.5
14075,23.5
14076,24.6
14077,25.7
14078,21.0
14079,38.1
14082,39.1
14083,10.7
14084,24.0
14089,33.2
14090,11.3
14091,33.9
14092,3.1
14093,23.7
14094,21.5
14096,26.1
14100,27.6
14101,18.1
14103,11.1
14104,13.3
14107,35.7
14110,32.6
14115,25.1
14116,-2.1
14117,9.2
14118,40.1
14122,33.2
14123,30.3
14128,39.9
14129,51.9
14132,6.5
14133,27.8
14137,21.3
14141,28.8
14142,4.3
14144,15.2
14147,10.9
14149,4.6
14150,38.3
14151,4.0
14153,13.3
14161,31.7
14162,29.4
14163,25.2
14164,5.3
14166,51.9
14168,20.1
14170,7.1
14171,8.3
14179,26.2
14180,21.2
14181,22.7
14185,2.8
14186,23.5
14187,19.9
14191,31.3
14193,25.3
14195,41.6
14196,18.0
14197,4.1
14199,35.1
14200,15.4
14203,13.3
14205,19.9
14206,26.5
14208,33.6
14209,31.1
14212,28.2
14214,35.3
14215,21.1
14216,-4.7
14220,13.4
14221,26.6
14222,27.0
14223,4.3
14228,46.8
14229,8.4
14232,36.7
14233,6.3
14236,7.0
14241,28.8
14242,13.2
14243,36.1
14244,33.6
14246,41.5
14251,16.2
14252,31.5
14253,24.1
14254,13.3
14256,23.4
14257,6.1
14258,39.6
14259,40.7
14260,19.3
14261,21.7
14263,27.3
14264,29.4
14266,51.9
14267,40.3
14272,30.3
14273,18.3
14275,11.7
14276,41.7
14277,10.0
14278,28.8
14280,5.8
14281,25.9
14282,41.2
14283,16.7
14284,16.1
14288,34.7
14290,28.8
14291,31.8
14292,32.1
14293,6.1
14294,25.9
14295,26.4
14297,10.7
14298,38.6
14299,22.3
14300,5.5
14301,35.6
14302,10.5
14303,36.1
14304,10.8
14310,30.4
14313,27.9
14316,-4.7
14317,37.5
14318,4.1
14319,23.2
14320,39.9
14321,29.9
14323,6.6
14325,10.3
14327,34.9
14328,46.8
14330,22.0
14331,19.0
14332,21.8
14333,9.5
14334,29.3
14335,8.9
14336,17.6
14337,34.1
14340,29.6
14341,26.2
14342,18.9
14346,6.8
14348,35.5
14352,5.1
14353,10.8
14355,26.6
14357,23.1
14360,12.7
14361,3.5
14364,35.9
14365,54.5
14366,14.4
14367,26.1
14368,4.3
14369,21.0
14374,8.5
14376,16.3
14377,13.8
14378,22.6
14379,28.8
14381,15.3
14382,11.0
14384,29.8
14388,38.2
14391,28.8
14392,34.8
14395,11.4
14398,25.9
14400,25.4
14401,32.3
14403,13.3
14404,6.9
14405,21.3
14406,13.1
14407,31.3
14408,26.2
14411,8.2
14412,38.4
14415,-9.8
14417,33.1
14419,37.7
14421,6.2
14422,34.3
14425,4.8
14428,44.2
14435,26.0
14437,31.6
14440,14.9
14441,26.2
14444,37.2
14445,4.7
14446,31.6
14450,41.3
14453,8.2
14456,39.9
14460,12.2
14465,51.9
14466,21.7
14469,18.8
14474,9.2
14476,39.4
14477,26.2
14478,34.8
14479,41.7
14480,30.3
14481,18.2
14489,33.9
14491,3.5
14492,29.8
14493,17.8
14497,24.9
14498,12.4
14499,12.3
14502,13.3
14503,35.0
14504,30.9
14505,24.2
14507,14.7
14509,5.8
14511,17.6
14512,33.0
14513,26.1
14515,-2.1
14517,2.3
14519,32.9
14520,20.8
14521,18.0
14523,28.5
14527,49.3
14530,15.5
14534,40.3
14536,3.8
14537,25.5
14539,28.8
14540,29.8
14542,14.2
14544,37.3
14545,25.2
14548,20.6
14552,13.3
14553,27.2
14557,38.6
14559,3.3
14564,51.9
14565,41.4
14568,26.5
14569,36.6
14570,30.1
14571,20.4
14575,27.4
14577,28.8
14578,37.7
14579,15.1
14580,39.8
14582,39.0
14583,18.7
14588,22.3
14589,31.3
14590,4.7
14592,10.2
14593,40.5
14594,20.8
14595,39.4
14601,20.1
14602,10.8
14608,21.1
14609,7.4
14610,21.2
14611,11.1
14612,13.7
14614,-4.7
14619,2.4
14621,38.8
14623,14.2
14624,28.0
14625,27.9
14626,46.8
14627,31.4
14629,39.8
14633,5.8
14635,26.7
14637,37.2
14640,26.2
14641,35.6
14642,11.2
14644,34.4
14646,18.5
14647,38.5
14650,9.4
14652,13.3
14653,11.4
14655,14.5
14656,38.1
14657,5.8
14658,23.8
14659,28.0
14661,14.4
14662,12.7
14664,51.9
14667,13.9
14668,40.9
14671,36.9
14673,12.8
14676,28.8
14677,28.8
14681,28.7
14683,8.3
14686,13.2
14687,34.3
14689,28.8
14690,32.2
14692,2.3
14702,8.2
14703,26.0
14704,19.6
14706,16.0
14709,37.8
14713,0.5
14717,5.6
14721,28.7
14723,22.6
14725,54.5
14726,28.3
14727,41.2
14730,18.7
14733,13.0
14734,26.5
14737,31.3
14740,25.0
14741,6.1
14742,21.8
14744,9.7
14745,23.6
14747,30.3
14749,26.2
14751,37.9
14753,20.7
14754,14.8
14757,35.2
14759,7.4
14760,35.6
14761,26.2
14763,41.6
14764,29.4
14768,26.9
14769,22.3
14770,35.0
14771,17.4
14773,5.0
14775,-9.8
14776,38.1
14777,33.2
14782,3.1
14785,10.0
14787,44.2
14789,17.3
14793,26.7
14794,9.2
14797,25.1
14799,21.0
14800,41.6
14803,3.4
14805,40.3
14806,11.7
14807,17.3
14808,17.3
14811,25.3
14812,5.6
14814,39.5
14816,18.9
14817,8.9
14823,51.9
14825,8.7
14827,15.9
14828,11.3
14835,17.3
14836,28.8
14838,24.7
14839,5.7
14840,4.6
14843,34.9
14844,33.3
14845,9.7
14846,29.1
14849,31.3
14850,35.4
14851,33.7
14852,33.3
14853,14.2
14855,13.2
14858,27.2
14860,8.0
14861,10.8
14863,2.1
14864,19.0
14865,9.1
14866,31.8
14869,12.8
14870,9.7
14872,34.2
14873,-7.2
14875,29.0
14878,23.6
14879,11.2
14881,11.5
14885,46.8
14887,10.3
14888,16.8
14889,39.6
14894,31.5
14898,26.2
14900,17.2
14903,38.1
14904,12.2
14906,3.5
14910,19.4
14911,10.8
14915,34.3
14916,34.5
14920,9.0
14923,51.9
14924,12.0
14933,24.5
14936,31.3
14942,17.3
14943,26.8
14944,7.3
14948,28.8
14951,15.2
14954,2.8
14955,12.8
14957,15.6
14960,8.2
14965,35.3
14967,25.1
14969,15.9
14972,0.5
14973,41.0
14976,36.1
14978,27.3
14979,39.4
14983,34.3
14984,54.5
14985,41.5
14986,26.4
14989,37.2
14992,38.8
14994,35.7
14996,31.3
14998,36.6
15001,11.9
15002,19.1
15003,38.2
15007,36.9
15008,23.6
15010,18.9
15013,15.1
15014,14.9
15015,5.8
15019,36.5
15021,31.3
15024,18.2
15025,3.8
15028,20.3
15029,34.1
15032,22.9
15033,2.2
15034,-7.2
15035,32.5
15036,33.9
15039,15.6
15042,7.5
15043,22.3
15045,20.2
15046,41.6
15048,39.4
15050,41.4
15052,31.6
15054,26.4
15056,18.1
15057,17.1
15058,18.5
15060,40.5
15061,19.2
15066,25.6
15070,26.5
15071,5.6
15072,12.3
15073,2.7
15074,30.0
15075,20.3
15081,36.1
15082,51.9
15083,27.7
15084,36.9
15086,36.7
15087,19.3
15089,4.1
15092,35.9
15094,28.8
15096,26.8
15098,38.3
15099,5.2
15101,40.5
15106,10.6
15107,22.9
15108,31.3
15110,33.8
15112,40.0
15113,39.3
15114,19.9
15115,15.5
15117,21.2
15118,16.3
15119,19.3
15120,10.8
15121,15.0
15122,28.1
15123,5.1
15124,31.1
15126,18.9
15129,2.8
15131,5.8
15132,-7.2
15135,21.7
15138,13.7
15140,24.5
15141,30.9
15144,46.8
15145,9.2
15149,13.4
15153,10.3
15155,40.6
15156,26.4
15157,26.2
15158,27.6
15159,19.4
15162,22.7
15166,2.7
15167,41.1
15169,39.1
15170,10.8
15174,15.0
15175,38.4
15176,27.8
15182,54.5
15184,33.3
15186,18.3
15187,30.3
15188,33.6
15192,11.2
15193,15.7
15195,28.8
15196,3.8
15197,35.0
15198,32.0
15200,12.6
15201,9.1
15202,24.4
15203,4.9
15204,35.3
15207,26.2
15209,23.5
15210,8.7
15212,15.2
15215,19.8
15217,14.0
15218,3.3
15219,10.8
15220,7.2
15224,4.2
15226,36.5
15232,-7.2
15233,36.4
15235,23.6
15237,36.9
15239,42.0
15244,19.1
15245,46.8
15246,8.9
15252,17.1
15255,35.2
15256,22.6
15257,26.2
15262,33.6
15264,27.2
15265,32.4
15266,12.0
15269,10.8
15272,27.9
15279,24.9
15282,57.1
15283,32.3
15286,18.3
15287,24.4
15292,4.1
15293,17.4
15294,33.9
15295,14.9
15296,16.0
15298,2.8
15299,35.6
15302,2.9
15304,5.2
15306,32.6
15307,26.2
15308,19.6
15310,25.1
15312,26.0
15313,5.4
15315,34.3
15318,27.9
15320,21.0
15322,2.1
15323,13.8
15332,-9.8
15333,38.8
15335,36.4
15336,7.9
15337,36.7
15338,30.3
15344,44.2
15345,20.4
15346,23.0
15347,32.4
15348,4.0
15350,10.6
15352,15.1
15354,7.9
15355,39.8
15356,23.6
15358,31.9
15359,10.6
15360,14.2
15361,13.3
15362,27.2
15363,12.3
15364,22.3
15367,25.9
15370,5.6
15371,31.9
15373,30.7
15376,11.3
15378,23.5
15381,54.5
15386,29.0
15387,8.0
15389,10.9
15390,19.6
15391,18.9
15393,26.2
15395,21.1
15396,35.7
15398,38.1
15404,19.9
15406,31.3
15410,10.8
15411,7.0
15412,19.9
15413,13.2
15415,16.3
15418,10.8
15423,20.5
15424,19.1
15425,29.0
15426,37.6
15429,17.5
15430,-4.7
15433,39.7
15434,19.8
15435,14.5
15438,3.6
15439,26.6
15440,38.4
15443,46.8
15447,38.6
15456,28.8
15457,26.2
15458,34.5
15459,12.6
15465,21.8
15466,32.9
15468,13.3
15469,17.0
15471,12.9
15472,13.5
15474,11.6
15475,13.4
15476,22.1
15477,15.4
15480,54.5
15489,25.5
15492,35.9
15493,28.8
15494,19.8
15496,20.4
15499,12.1
15503,35.0
15505,3.1
15506,31.3
15508,32.1
15512,11.6
15516,17.6
15517,18.8
15518,8.2
15522,21.0
15523,3.0
15525,36.9
15526,2.9
15527,36.7
15529,0.5
15530,18.9
15535,16.2
15536,14.3
15538,19.8
15541,51.9
15542,10.0
15544,5.5
15552,14.7
15553,33.9
15554,20.8
15555,10.3
15558,33.1
15559,4.4
15562,25.5
15564,33.6
15565,26.2
15567,27.7
15568,3.9
15569,36.0
15570,31.5
15579,26.2
15580,33.9
15581,16.9
15584,16.3
15585,22.2
15586,11.7
15587,13.6
15588,12.5
15589,11.8
15590,41.3
15591,-9.8
15592,34.0
15594,28.2
15598,18.9
15599,11.8
15600,40.2
15603,44.2
15605,38.6
15611,36.6
15612,7.2
15615,18.5
15616,23.6
15618,41.4
15619,27.3
15621,38.6
15623,28.8
15625,2.5
15626,40.3
15627,12.4
15628,3.0
15630,3.2
15632,42.0
15634,31.5
15635,4.8
15636,31.4
15639,34.6
15640,54.5
15643,25.4
15644,32.1
15648,16.5
15652,26.2
15654,18.9
15657,5.1
15658,29.6
15660,25.9
15665,33.9
15666,24.7
15667,31.4
15668,35.3
15669,41.7
15670,5.5
15671,6.1
15672,37.5
15677,10.8
15678,22.1
15679,32.0
15681,19.9
15682,39.2
15683,18.1
15684,5.1
15688,31.2
15689,-4.7
15691,20.8
15694,19.0
15695,5.7
15696,27.7
15697,27.9
15698,22.4
15700,28.8
15701,13.2
15703,49.3
15704,20.5
15705,25.3
15706,18.0
15707,28.0
15708,33.3
15710,17.3
15711,37.4
15712,30.3
15715,26.2
15716,2.6
15717,16.9
15719,7.3
15720,18.2
15727,10.8
15730,41.1
15732,25.4
15733,2.7
15734,27.7
15736,4.7
15738,30.7
15739,54.5
15740,30.1
15741,29.7
15743,2.1
15747,9.2
15749,30.2
15751,21.9
15752,28.8
15754,38.3
15757,36.2
15758,14.6
15760,35.5
15764,28.8
15765,29.2
15771,26.9
15772,18.9
15773,38.6
15777,8.2
15779,4.7
15780,4.2
15788,4.7
15789,0.5
15796,37.0
15797,23.3
15798,17.0
15799,14.3
15800,54.5
15802,14.3
15805,36.7
15806,10.5
15807,25.6
15808,5.6
15809,20.2
15812,31.3
15813,31.6
15816,15.6
15818,12.4
15819,14.0
15820,14.1
15821,7.1
15822,9.5
15823,26.2
15824,23.6
15827,13.3
15829,2.7
15831,37.9
15833,37.0
15837,8.7
15838,28.8
15839,30.9
15842,33.3
15845,21.2
15850,-7.2
15851,11.0
15854,16.3
15855,5.3
15856,38.6
15857,29.3
15860,32.2
15861,18.3
15862,41.6
15864,14.4
15867,36.7
15872,21.9
15874,14.1
15875,21.0
15876,10.2
15878,40.8
15879,38.7
15880,5.1
15882,29.0
15887,5.6
15890,2.3
15892,16.2
15893,17.0
15895,12.7
15898,54.5
15900,39.8
15902,18.7
15906,14.7
15907,34.6
15908,16.0
15909,40.0
15911,28.8
15913,39.4
15914,33.0
15916,16.6
15924,31.3
15925,8.7
15927,6.8
15930,24.0
15931,15.1
15934,37.1
15936,8.2
15938,34.3
15940,4.3
15942,25.1
15943,14.1
15944,37.4
15945,33.7
15947,0.5
15950,5.0
15953,8.8
15955,41.9
15956,41.2
15957,15.2
15959,54.5
15964,34.3
15972,31.3
15974,35.6
15975,40.9
15979,6.4
15984,26.2
15987,20.4
15988,32.3
15990,9.1
15993,23.5
15996,23.6
15998,39.7
15999,5.9
16008,10.8
16009,-9.8
16011,23.3
16013,40.2
16014,5.7
16017,37.7
16018,32.6
16019,31.3
16021,44.2
16026,41.7
16034,21.0
16035,40.4
16040,4.6
16041,12.3
16044,17.4
16047,8.2
16048,12.4
16050,30.1
16052,41.3
16053,8.9
16055,38.6
16058,54.5
16061,6.1
16062,26.3
16064,16.8
16066,20.5
16068,35.6
16070,26.2
16072,41.1
16074,35.9
16076,35.6
16080,31.4
16081,6.1
16082,31.3
16083,4.5
16084,14.6
16085,20.9
16089,9.7
16090,5.6
16095,10.8
16099,5.5
16100,30.9
16101,5.5
16103,12.0
16104,15.3
16105,27.6
16108,-4.7
16109,16.5
16112,36.0
16113,40.1
16116,14.8
16118,3.6
16120,49.3
16124,4.4
16125,14.3
16126,2.4
16127,19.6
16128,5.5
16133,26.2
16134,30.5
16143,37.7
16145,13.3
16146,26.7
16154,37.5
16155,18.3
16157,54.5
16163,26.6
16165,14.1
16168,32.7
16169,14.8
16171,28.8
16172,18.3
16173,35.6
16174,19.3
16175,32.0
16177,14.2
16179,41.5
16181,14.1
16182,33.3
16183,28.8
16186,31.7
16187,9.4
16189,25.6
16191,7.7
16192,39.6
16195,10.8
16196,36.3
16198,25.9
16199,15.6
16200,4.2
16201,14.3
16206,5.3
16207,-9.8
16212,26.7
16216,31.3
16220,44.2
16221,6.1
16222,18.8
16223,6.2
16224,29.8
16225,17.3
16227,27.6
16228,29.6
16229,5.7
16230,4.4
16231,32.2
16233,26.2
16234,35.6
16237,30.1
16238,23.1
16242,7.3
16243,28.6
16245,8.2
16248,7.4
16250,31.6
16252,18.2
16255,7.7
16257,49.3
16258,35.0
16259,39.0
16261,8.1
16263,5.3
16264,34.4
16265,16.2
16267,27.5
16269,18.5
16275,8.8
16277,33.3
16279,35.4
16280,24.7
16281,36.5
16286,17.3
16288,7.8
16289,23.2
16290,27.3
16293,15.9
16295,21.9
16296,34.0
16303,30.3
16307,-2.1
16309,31.8
16310,2.4
16311,24.7
16312,7.6
16315,34.0
16317,27.3
16319,51.9
16320,39.5
16322,27.3
16323,21.7
16326,32.4
16329,24.1
16331,31.3
16332,20.2
16334,30.1
16335,8.3
16336,3.2
16339,40.4
16340,28.4
16341,38.5
16344,15.9
16345,12.7
16346,15.6
16349,21.7
16350,7.2
16355,34.2
16356,51.9
16360,24.3
16362,39.6
16365,7.8
16366,16.0
16367,13.8
16369,23.6
16371,9.5
16373,30.7
16376,3.8
16378,29.1
16380,22.5
16381,31.3
16382,39.0
16385,27.7
16387,30.3
16391,7.9
16392,27.3
16393,22.6
16394,10.8
16398,2.6
16401,17.2
16402,13.5
16403,3.1
16404,33.7
16405,35.3
16406,-2.1
16407,12.5
16408,18.7
16410,16.3
16413,14.0
16416,21.1
16417,20.0
16418,49.3
16419,34.2
16420,29.7
16424,26.3
16426,15.6
16428,30.7
16429,2.9
16431,28.8
16437,36.8
16438,27.4
16439,40.9
16440,25.4
16441,15.2
16444,13.3
16447,17.7
16449,29.5
16450,10.2
16454,5.8
16456,51.9
16457,17.6
16458,27.1
16459,16.2
16460,34.2
16462,10.8
16463,24.4
16464,23.2
16468,28.8
16471,39.1
16472,19.7
16473,37.2
16476,15.9
16477,29.9
16478,38.5
16480,26.5
16481,31.3
16482,35.2
16484,5.0
16485,17.6
16489,40.4
16493,8.2
16494,18.7
16495,7.1
16496,39.1
16499,35.7
16500,2.9
16502,5.5
16503,5.9
16505,3.0
16507,31.1
16508,9.7
16512,17.3
16514,38.9
16517,54.5
16518,21.3
16519,25.6
16520,28.6
16525,19.9
16527,37.3
16529,31.3
16530,32.1
16533,26.6
16535,10.6
16537,2.7
16541,26.2
16547,15.2
16552,32.4
16553,21.0
16554,31.2
16556,36.3
16558,22.8
16560,33.9
16562,32.6
16563,31.2
16566,24.4
16567,-9.8
16577,40.0
16579,46.8
16581,24.8
16584,14.3
16586,25.6
16587,32.1
16589,12.4
16590,34.4
16591,23.6
16593,31.2
16595,40.3
16596,11.3
16597,19.6
16599,24.4
16600,25.5
16602,37.3
16603,40.3
16604,5.6
16606,18.4
16607,10.6
16611,4.3
16613,24.6
16614,31.1
16615,51.9
16616,7.0
16618,31.2
16619,21.7
16623,34.3
16624,12.2
16625,22.4
16626,22.7
16627,26.2
16629,34.6
16630,23.1
16631,32.8
16639,35.4
16641,33.9
16644,15.3
16645,29.6
16647,8.0
16650,37.6
16651,16.7
16652,28.5
16653,10.8
16655,28.5
16656,28.5
16659,36.9
16660,8.4
16665,-4.7
16667,38.2
16668,30.7
16673,38.0
16676,32.4
16677,49.3
16678,6.4
16681,10.7
16682,11.8
16683,10.4
16684,19.5
16685,22.4
16688,15.7
16690,28.8
16692,23.4
16694,13.9
16695,39.7
16696,18.9
16697,38.3
16699,27.6
16701,22.1
16703,13.3
16707,26.4
16708,18.0
16711,15.0
16713,24.1
16715,54.5
16717,21.2
16718,12.8
16728,26.2
16730,13.2
16734,15.0
16738,25.0
16739,15.4
16740,28.8
16741,5.2
16743,16.3
16747,10.0
16748,39.5
16749,14.9
16751,15.8
16752,8.2
16756,33.5
16760,15.2
16761,27.1
16764,0.5
16765,39.0
16766,30.0
16767,21.5
16768,23.5
16770,20.3
16776,54.5
16780,13.1
16781,40.7
16785,4.6
16788,31.3
16790,27.4
16792,40.8
16795,17.4
16796,37.5
16798,39.1
16800,26.2
16802,19.1
16804,14.9
16807,6.8
16810,31.9
16813,23.6
16815,6.7
16816,26.7
16818,21.7
16821,12.3
16824,11.0
16825,-9.8
16830,26.5
16831,16.2
16834,14.7
16835,32.7
16836,33.1
16837,19.4
16838,44.2
16839,37.5
16840,26.5
16841,19.6
16842,26.0
16846,11.5
16850,21.0
16851,30.9
16852,38.5
16858,4.0
16859,40.2
16860,16.0
16861,22.2
16862,9.3
16863,5.6
16865,35.4
16866,17.8
16867,9.7
16868,3.5
16871,32.3
16872,15.1
16874,51.9
16884,21.0
16885,27.6
16886,26.2
16889,8.9
16895,13.2
16896,7.1
16897,13.2
16899,23.7
16900,31.3
16904,31.8
16906,14.2
16908,28.5
16912,10.8
16918,8.7
16919,17.3
16920,24.1
16922,24.7
16923,22.8
16924,-4.7
16926,12.2
16929,28.2
16930,4.0
16932,5.3
16933,27.4
16935,22.2
16936,46.8
16937,3.3
16940,2.3
16942,10.2
16943,38.4
16944,24.1
16948,4.9
16949,26.2
16950,36.2
16951,36.8
16953,19.5
16955,11.7
16957,33.8
16958,23.1
16961,13.3
16962,18.0
16966,31.9
16972,6.2
16974,54.5
16975,15.8
16976,12.4
16977,18.7
16978,2.6
16979,11.8
16982,8.2
16986,17.7
16987,28.8
16990,26.6
16992,19.5
16995,36.2
16999,31.3
17000,39.3
17001,35.0
17002,18.1
17004,30.0
17008,21.8
17011,8.2
17014,3.9
17021,15.3
17022,0.5
17024,10.2
17028,39.0
17031,36.1
17032,14.0
17034,24.9
17035,54.5
17037,6.3
17039,29.6
17040,30.4
17041,34.8
17047,33.9
17053,16.0
17056,19.8
17058,27.1
17059,26.2
17061,29.3
17062,34.1
17063,16.6
17065,3.7
17069,41.2
17070,37.2
17072,28.8
17075,40.0
17076,40.8
17077,30.9
17080,36.0
17081,28.0
17083,28.3
17084,-9.8
17085,24.3
17091,36.4
17092,28.9
17096,41.6
17097,20.2
17100,37.0
17102,24.0
17103,5.6
17104,8.3
17106,9.3
17107,12.4
17108,39.7
17109,16.8
17110,21.0
17111,21.1
17114,22.5
17118,13.5
17119,17.8
17120,19.8
17121,26.4
17122,5.6
17123,35.3
17124,35.2
17128,35.2
17133,51.9
17135,5.3
17138,33.3
17141,24.5
17144,24.8
17145,26.2
17149,6.0
17150,22.2
17153,20.2
17154,17.0
17155,4.7
17156,24.9
17157,29.5
17158,28.8
17159,14.0
17160,33.7
17161,26.2
17163,8.6
17164,10.2
17166,6.0
17168,38.7
17169,26.8
17171,8.2
17172,9.1
17174,32.4
17176,32.4
17179,22.7
17180,27.8
17182,3.0
17185,28.5
17186,21.0
17188,19.6
17193,54.5
17194,19.4
17198,17.2
17205,14.8
17206,31.3
17210,37.9
17211,21.3
17213,16.5
17217,14.1
17218,26.2
17219,26.5
17224,27.9
17229,30.3
17230,27.5
17231,21.0
17232,14.2
17233,41.4
17234,19.3
17235,20.8
17236,21.7
17241,15.5
17242,18.4
17244,-9.8
17245,24.5
17247,40.0
17248,31.0
17251,35.2
17255,12.6
17256,41.6
17257,26.5
17259,37.9
17260,21.5
17263,39.9
17267,29.8
17268,23.6
17269,13.9
17270,6.5
17272,10.4
17274,25.7
17277,20.7
17281,8.2
17283,41.8
17285,28.6
17286,6.4
17288,40.0
17289,27.7
17290,20.5
17291,36.4
17292,51.9
17294,32.7
17295,26.6
17300,12.5
17303,28.5
17304,34.7
17305,23.6
17306,28.4
17308,29.8
17310,21.4
17311,8.9
17314,39.7
17317,31.3
17319,20.7
17330,10.8
17332,22.0
17333,18.1
17335,6.2
17336,15.7
17338,27.9
17342,-4.7
17343,31.2
17345,21.5
17346,5.8
17347,23.4
17352,37.0
17354,46.8
17355,17.0
17358,10.6
17364,28.6
17366,8.1
17368,26.2
17369,36.4
17371,23.5
17373,40.7
17375,16.0
17376,2.7
17377,33.0
17380,13.3
17381,32.0
17383,33.4
17384,35.5
17386,21.4
17387,25.9
17391,35.3
17392,51.9
17393,16.5
17395,22.1
17397,28.1
17399,18.1
17401,8.2
17402,37.9
17403,23.2
17404,28.8
17406,38.4
17407,27.1
17408,6.7
17411,9.7
17414,8.7
17417,28.8
17419,10.5
17422,31.4
17424,33.5
17425,27.5
17426,19.8
17427,14.0
17428,20.6
17430,8.2
17432,12.1
17433,34.3
17436,41.9
17438,19.8
17441,0.5
17442,30.7
17444,12.2
17447,41.2
17452,28.8
17453,54.5
17454,21.6
17461,34.4
17462,34.8
17463,11.8
17465,31.3
17468,13.6
17470,24.2
17471,30.5
17474,24.9
17475,41.8
17477,26.2
17480,22.7
17481,10.7
17483,39.6
17487,16.9
17488,32.7
17489,23.6
17491,3.5
17492,20.5
17495,9.6
17498,35.0
17500,6.0
17503,-12.4
17507,5.1
17508,15.9
17509,29.1
17510,28.4
17513,3.6
17514,6.2
17516,36.5
17519,32.0
17521,39.6
17523,20.4
17527,33.6
17528,13.3
17529,12.8
17530,3.3
17532,23.7
17537,30.0
17541,-2.1
17543,9.1
17544,23.2
17545,14.6
17546,5.9
17550,38.2
17551,8.2
17553,51.9
17554,32.0
17555,16.6
17556,34.4
17557,11.5
17559,24.0
17560,33.7
17564,25.4
17566,28.8
17568,19.8
17571,29.1
17573,16.1
17575,9.9
17579,15.9
17581,19.1
17582,42.0
17584,16.7
17585,29.0
17587,16.2
17589,23.1
17590,18.3
17591,51.9
17592,21.6
17596,20.2
17599,7.3
17603,23.6
17606,23.5
17607,12.8
17608,5.4
17609,10.5
17610,34.0
17613,34.8
17614,32.1
17615,33.9
17616,26.5
17617,5.0
17620,9.6
17621,26.1
17627,38.4
17628,10.8
17629,14.4
17630,21.7
17631,14.4
17633,26.6
17636,19.3
17638,36.0
17641,-4.7
17643,38.9
17644,14.5
17647,30.5
17648,31.1
17649,18.6
17650,32.7
17651,37.4
17652,40.0
17653,51.9
17658,12.7
17660,40.5
17663,9.8
17666,31.3
17668,32.7
17670,40.9
17671,28.7
17672,28.6
17677,38.6
17678,13.3
17680,28.9
17682,11.1
17687,16.6
17690,51.9
17692,27.2
17695,35.7
17699,24.4
17702,8.1
17703,26.2
17705,35.0
17707,22.5
17709,41.0
17711,15.7
17716,31.3
17717,39.9
17718,28.8
17719,11.5
17720,31.2
17721,34.4
17724,39.8
17726,30.3
17728,10.8
17729,34.0
17732,7.7
17735,22.3
17736,32.5
17739,17.6
17740,-4.7
17743,39.6
17745,6.1
17746,34.4
17748,28.9
17749,40.3
17750,33.9
17751,8.6
17753,49.3
17760,12.6
17762,28.3
17765,14.9
17766,26.2
17767,8.4
17768,17.1
17771,38.9
17772,25.4
17776,33.6
17778,10.8
17782,23.9
17783,34.2
17786,7.9
17789,15.3
17790,51.9
17792,26.7
17793,14.2
17794,41.1
17795,32.4
17796,20.1
17797,12.6
17798,27.2
17800,17.1
17801,16.9
17802,10.6
17803,28.8
17808,17.0
17814,34.8
17815,31.3
17817,13.2
17818,39.0
17819,6.4
17821,5.9
17822,32.9
17823,23.3
17824,36.0
17826,38.2
17827,10.8
17828,15.7
17829,10.6
17830,38.9
17831,9.5
17832,40.7
17833,29.5
17834,7.8
17835,10.2
17836,35.0
17841,-7.2
17843,27.7
17844,6.0
17845,25.7
17846,19.8
17847,40.0
17849,19.2
17850,14.0
17851,6.0
17852,33.1
17853,46.8
17856,13.2
17857,21.9
17859,5.2
17860,17.3
17863,7.4
17865,23.6
17870,3.1
17877,5.0
17878,8.2
17883,28.5
17884,11.8
17887,11.7
17888,12.7
17889,46.8
17893,4.4
17897,5.9
17898,9.4
17899,8.8
17902,18.5
17903,10.3
17904,17.6
17905,9.8
17907,22.3
17909,37.1
17910,17.8
17913,13.6
17914,33.9
17915,38.3
17916,3.8
17917,24.9
17918,41.7
17919,28.5
17920,21.3
17921,6.3
17922,23.7
17923,33.0
17926,17.1
17927,13.3
17928,31.6
17930,16.9
17931,21.3
17935,28.2
17936,29.6
17938,4.6
17939,-2.1
17941,18.6
17943,40.3
17947,22.0
17948,3.7
17949,23.8
17951,51.9
17955,35.8
17957,17.8
17959,4.0
17960,14.0
17963,22.0
17965,28.8
17966,34.6
17967,10.9
17968,11.0
17970,35.1
17975,8.5
17977,13.3
17978,35.8
17984,28.2
17988,33.8
17989,49.3
17990,12.3
17999,19.2
18000,13.9
18001,23.6
18004,25.6
18006,5.3
18007,3.5
18008,30.7
18009,29.4
18010,11.2
18011,29.3
18014,31.3
18016,17.5
18018,38.5
18019,33.8
18020,24.8
18021,40.6
18022,30.8
18026,10.8
18032,32.0
18033,27.8
18034,11.2
18037,7.2
18039,-4.7
18040,34.6
18042,41.9
18045,30.2
18049,25.8
18052,49.3
18053,29.3
18056,6.9
18057,4.8
18058,36.5
18059,24.3
18062,6.0
18063,17.9
18064,28.8
18065,23.8
18067,25.2
18068,20.6
18070,2.4
18071,13.1
18074,6.7
18075,15.3
18076,13.3
18079,11.9
18082,25.9
18085,27.5
18086,17.9
18088,51.9
18091,7.5
18092,37.0
18093,40.1
18097,18.1
18098,2.1
18100,9.0
18101,18.9
18102,28.8
18104,31.4
18108,32.3
18111,24.0
18113,22.4
18114,31.3
18116,16.7
18118,13.1
18121,2.4
18122,36.6
18125,39.1
18126,10.8
18127,11.3
18129,32.9
18130,16.7
18133,11.2
18135,22.1
18137,13.9
18138,29.3
18139,-7.2
18142,26.9
18148,5.3
18149,18.3
18151,46.8
18157,19.9
18158,37.4
18161,15.1
18164,26.2
18165,5.4
18166,14.5
18171,38.7
18172,17.1
18174,10.7
18177,10.8
18180,29.6
18181,15.8
18187,3.0
18188,8.5
18189,54.5
18190,5.3
18191,3.9
18198,34.3
18201,31.3
18204,5.5
18207,38.4
18209,11.8
18211,5.5
18212,15.2
18213,28.8
18216,22.5
18218,27.4
18221,30.3
18224,24.7
18225,2.5
18226,8.2
18227,10.8
18228,34.3
18231,36.5
18233,20.2
18235,21.7
18238,-2.1
18239,21.7
18241,36.3
18242,30.0
18243,9.7
18244,15.8
18250,51.9
18257,22.0
18259,38.3
18263,31.3
18264,37.7
18267,14.1
18269,7.2
18271,38.4
18272,29.9
18274,2.2
18275,15.9
18277,5.7
18278,17.7
18285,23.6
18287,49.3
18288,11.3
18289,27.4
18292,24.2
18294,14.8
18295,11.6
18297,17.4
18300,21.0
18301,12.4
18302,32.2
18303,20.1
18309,35.3
18313,33.9
18314,20.3
18315,36.6
18316,19.4
18317,4.4
18325,13.3
18326,17.5
18327,11.0
18329,15.0
18332,40.2
18333,35.7
18337,-4.7
18341,39.2
18343,34.0
18344,20.2
18346,27.4
18347,35.7
18349,35.7
18350,49.3
18351,27.6
18353,20.9
18363,28.8
18365,11.5
18366,11.1
18368,9.1
18375,13.3
18379,25.2
18380,18.8
18381,35.1
18383,31.0
18387,51.9
18390,15.3
18392,32.2
18395,22.0
18400,28.8
18402,41.2
18403,41.8
18408,15.6
18409,33.2
18412,31.3
18416,14.1
18417,13.2
18424,10.8
18426,23.3
18432,3.7
18434,14.1
18438,-4.7
18439,36.9
18440,19.6
18441,34.1
18443,35.7
18444,23.7
18450,49.3
18451,41.6
18462,28.8
18464,17.5
18465,36.3
18468,35.8
18469,8.5
18470,4.1
18474,25.8
18475,10.8
18477,35.9
18478,37.6
18479,16.4
18482,25.2
18484,37.6
18485,34.1
18486,18.5
18487,54.5
18491,6.7
18494,6.3
18496,21.4
18497,41.7
18500,28.8
18504,20.9
18506,14.3
18507,20.0
18509,13.6
18510,31.7
18512,31.3
18516,18.7
18518,20.5
18519,22.5
18525,10.8
18529,33.6
18536,8.1
18537,-9.8
18538,17.5
18540,25.1
18543,13.8
18549,46.8
18550,15.5
18552,39.7
18561,29.2
18563,28.8
18564,32.3
18566,25.2
18568,26.4
18575,10.8
18576,12.3
18578,29.4
18580,23.1
18582,16.0
18584,18.7
18586,35.7
18587,54.5
18588,17.2
18592,25.6
18594,25.9
18597,38.9
18599,31.3
18601,40.2
18603,30.7
18606,18.3
18607,10.7
18608,7.3
18609,18.4
18610,23.9
18611,3.4
18612,28.8
18616,32.7
18617,19.7
18619,19.6
18623,20.2
18624,13.3
18627,25.8
18632,20.7
18633,32.3
18635,10.2
18637,-9.8
18640,24.6
18644,35.0
18645,7.8
18649,10.9
18650,44.2
18653,20.7
18654,9.3
18657,31.8
18660,32.4
18661,19.8
18662,23.6
18663,28.8
18665,5.4
18667,39.9
18669,32.4
18673,41.5
18674,8.2
18677,6.9
18681,24.2
18683,18.8
18684,9.5
18685,51.9
18686,33.7
18687,18.3
18688,40.7
18689,28.1
18691,8.7
18693,10.1
18696,11.3
18699,23.6
18702,29.4
18703,33.1
18704,4.1
18706,7.7
18707,26.7
18708,39.2
18711,31.3
18712,12.1
18714,17.2
18715,33.5
18718,34.6
18719,37.6
18720,35.4
18722,40.1
18723,10.8
18725,17.1
18726,41.4
18728,12.3
18730,11.1
18736,-4.7
18740,38.7
18744,18.0
18746,15.8
18747,7.2
18748,49.3
18749,15.6
18751,23.5
18752,17.7
18755,33.1
18759,26.0
18760,28.8
18761,5.6
18762,22.2
18763,11.7
18768,30.6
18772,3.9
18774,13.3
18776,33.4
18785,36.5
18786,51.9
18788,12.6
18789,23.2
18791,35.1
18794,15.5
18798,26.2
18801,23.3
18804,33.2
18807,15.6
18808,6.3
18809,40.5
18810,31.3
18812,27.3
18814,32.6
18815,22.8
18820,2.4
18823,10.8
18824,8.7
18825,16.0
18827,14.4
18829,7.7
18831,34.1
18832,15.0
18833,41.0
18834,18.4
18836,-4.7
18837,41.7
18838,40.8
18841,16.6
18842,34.0
18843,21.2
18845,36.4
18846,40.0
18847,24.0
18848,49.3
18851,27.5
18852,19.9
18853,17.9
18855,29.1
18859,3.7
18861,26.2
18863,30.9
18864,40.0
18866,8.8
18868,12.0
18869,5.0
18871,21.2
18873,10.8
18874,38.1
18875,5.7
18876,40.8
18877,38.1
18884,24.4
18885,51.9
18886,40.6
18887,38.9
18896,40.1
18898,28.8
18899,33.0
18901,28.5
18903,23.6
18905,20.9
18906,23.0
18910,21.4
18911,31.3
18912,38.8
18917,22.8
18921,10.1
18923,8.2
18926,33.9
18927,5.1
18928,34.1
18931,34.2
18932,24.7
18934,0.5
18936,33.9
18938,8.9
18939,34.7
18942,21.0
18943,28.7
18944,17.7
18945,14.0
18946,54.5
18947,19.1
18951,11.4
18952,32.4
18954,23.7
18955,22.3
18957,20.8
18958,33.9
18961,2.8
18964,5.1
18965,3.7
18966,23.1
18967,14.5
18968,29.4
18970,8.0
18971,23.6
18972,2.8
18977,29.2
18981,31.2
18983,28.8
18984,28.2
18989,2.1
18990,30.9
18991,21.6
18993,13.9
18994,39.9
18996,-7.2
19001,4.7
19002,13.0
19004,21.9
19008,41.6
19009,7.5
19010,36.6
19012,4.7
19016,36.7
19018,12.8
19019,18.6
19020,21.0
19022,37.0
19023,14.8
19026,31.6
19027,33.2
19030,16.2
19033,18.2
19034,5.6
19035,29.2
19036,19.9
19039,13.0
19043,35.0
19044,11.2
19045,54.5
19046,30.9
19047,4.2
19048,23.4
19049,32.7
19053,13.7
19055,23.7
19057,28.8
19058,39.6
19060,9.5
19061,2.5
19062,40.7
19064,22.3
19066,21.7
19069,31.3
19071,38.1
19073,29.6
19074,10.6
19075,23.4
19079,27.8
19080,19.0
19082,8.2
19089,33.8
19092,36.6
19094,0.5
19097,15.4
19099,41.1
19103,8.1
19105,54.5
19106,7.4
19107,21.4
19109,12.7
19112,28.5
19113,15.7
19115,30.1
19116,26.8
19118,31.3
19119,20.4
19120,5.8
19123,3.8
19124,6.3
19125,19.3
19127,26.4
19130,26.2
19131,35.9
19132,21.3
19136,7.3
19137,26.7
19138,16.0
19140,24.9
19141,3.8
19142,23.6
19145,35.9
19148,8.2
19149,31.0
19152,16.1
19154,-12.4
19156,11.5
19157,30.2
19158,40.8
19159,20.0
19160,2.2
19164,12.7
19165,27.9
19166,9.9
19167,21.1
19169,33.9
19171,15.6
19174,8.5
19176,38.4
19179,15.7
19180,40.6
19181,13.3
19185,27.3
19187,16.9
19189,14.9
19190,7.0
19192,19.2
19193,-2.1
19196,10.4
19198,26.2
19199,19.7
19201,13.3
19206,51.9
19207,8.6
19214,2.8
19218,31.3
19219,33.5
19223,15.4
19224,39.5
19225,14.1
19226,36.4
19227,41.8
19228,40.5
19231,18.5
19232,38.6
19233,14.0
19236,34.4
19238,35.1
19239,25.3
19240,8.3
19241,7.2
19243,26.1
19244,49.3
19245,22.7
19248,23.8
19249,29.7
19251,9.1
19254,28.1
19256,23.6
19257,40.1
19258,40.7
19260,38.6
19262,31.1
19265,11.4
19268,31.3
19269,39.0
19271,19.4
19276,33.6
19278,21.2
19280,13.3
19281,37.3
19283,12.3
19284,9.7
19286,14.2
19287,27.2
19288,15.7
19292,14.2
19294,-4.7
19296,37.9
19298,22.8
19300,8.6
19302,41.0
19303,17.1
19304,21.1
19306,49.3
19309,15.5
19311,18.2
19314,30.4
19318,28.8
19319,14.3
19321,37.8
19324,36.7
19326,27.9
19329,35.4
19330,26.5
19331,13.3
19335,24.9
19336,32.5
19339,11.1
19340,39.1
19341,27.9
19342,27.6
19343,51.9
19345,7.0
19346,20.8
19350,36.6
19351,40.4
19352,27.1
19354,30.8
19355,26.2
19356,24.7
19359,2.4
19366,4.6
19367,30.0
19368,31.3
19370,21.3
19375,21.1
19377,7.1
19381,10.8
19382,37.2
19383,18.2
19389,29.8
19393,-4.7
19394,40.8
19399,35.3
19403,7.0
19405,46.8
19408,12.5
19410,8.2
19411,3.3
19413,18.5
19418,28.8
19419,26.0
19421,4.1
19423,32.4
19424,30.7
19425,12.7
19426,35.2
19429,41.0
19431,13.3
19435,38.5
19436,29.2
19437,7.9
19439,11.7
19443,51.9
19444,39.8
19450,6.5
19451,20.4
19452,34.8
19454,17.8
19456,28.8
19461,38.5
19465,12.3
19468,28.8
19469,40.4
19475,15.1
19476,24.9
19478,33.5
19480,10.8
19482,37.2
19484,27.4
19485,22.9
19486,7.0
19487,26.4
19493,-7.2
19496,10.9
19498,41.2
19502,26.4
19504,41.4
19505,12.9
19506,46.8
19512,34.0
19513,8.5
19515,25.0
19517,27.5
19518,26.2
19521,35.4
19526,40.5
19530,8.2
19531,27.9
19533,14.9
19535,18.7
19536,18.6
19537,29.7
19539,33.5
19540,33.9
19542,46.8
19543,5.3
19545,16.1
19546,36.5
19548,2.8
19554,18.5
19556,8.8
19558,19.3
19560,38.5
19561,31.7
19562,20.6
19567,33.9
19570,33.2
19572,18.1
19574,2.4
19575,30.8
19576,7.7
19577,24.5
19579,13.3
19580,25.0
19582,30.1
19583,27.4
19586,19.3
19590,35.7
19591,18.3
19592,0.5
19593,36.6
19595,27.8
19597,14.0
19599,20.1
19600,21.6
19602,35.7
19603,54.5
19605,30.2
19606,14.7
19608,28.3
19611,4.1
19613,38.8
19614,9.0
19615,31.3
19616,11.9
19617,18.0
19620,21.7
19621,7.7
19623,30.2
19624,4.4
19625,19.3
19628,40.0
19629,21.0
19630,34.5
19633,12.7
19634,24.8
19635,26.9
19641,33.9
19642,14.2
19644,11.2
19646,25.0
19648,25.5
19650,13.1
19653,0.5
19654,36.1
19655,31.6
19659,28.9
19661,36.6
19663,33.6
19664,46.8
19665,29.6
19666,9.0
19667,20.8
19670,29.8
19671,15.4
19672,9.9
19674,35.1
19677,28.8
19680,35.0
19681,5.9
19682,10.9
19683,2.8
19684,21.3
19686,13.1
19687,11.9
19689,10.8
19692,37.9
19695,29.2
19696,4.0
19699,41.4
19700,18.9
19701,6.1
19702,54.5
19704,9.1
19705,13.7
19707,21.0
19708,12.1
19710,27.3
19711,23.5
19713,9.6
19715,28.8
19716,34.8
19718,8.3
19721,11.7
19723,15.9
19724,15.0
19725,4.9
19727,28.8
19729,3.9
19730,11.9
19731,7.3
19732,5.8
19733,3.1
19734,30.3
19735,16.6
19736,16.3
19739,8.2
19740,23.4
19742,21.9
19743,34.2
19745,40.2
19746,12.7
19748,41.9
19750,0.5
19757,4.1
19761,8.1
19763,54.5
19765,37.8
19766,34.7
19769,29.0
19770,39.9
19771,17.7
19775,31.3
19777,4.8
19779,25.7
19780,8.3
19781,34.5
19782,36.2
19784,7.3
19786,11.3
19787,26.2
19789,34.0
19790,3.4
19792,21.5
19793,22.7
19796,25.5
19799,35.8
19800,28.8
19802,34.9
19803,31.3
19804,37.4
19806,38.1
19808,16.0
19809,31.7
19810,31.2
19812,-7.2
19813,14.4
19815,40.4
19819,39.3
19820,41.0
19822,26.7
19823,37.0
19824,41.6
19828,6.4
19832,29.7
19834,36.3
19835,14.6
19836,21.8
19837,21.0
19839,6.9
19843,39.3
19850,5.6
19851,19.3
19852,11.2
19855,40.4
19857,27.3
19858,7.3
19860,13.1
19861,54.5
19863,11.8
19865,35.6
19866,19.2
19867,31.8
19868,7.4
19870,36.1
19872,28.9
19873,28.8
19874,36.9
19876,28.3
19879,37.7
19886,28.8
19893,30.6
19894,11.5
19897,7.3
19899,10.8
19900,37.0
19901,2.0
19905,19.4
19906,4.9
19907,3.7
19908,8.2
19909,14.6
19911,-7.2
19912,24.5
19914,17.4
19915,34.3
19917,28.7
19920,18.8
19921,19.8
19922,37.1
19923,46.8
19925,14.2
19926,29.4
19928,29.7
19930,18.9
19932,38.5
19933,22.2
19934,31.8
19936,26.2
19938,25.7
19939,6.4
19941,5.1
19943,13.4
19946,32.2
19948,10.8
19949,31.3
19951,36.0
19952,31.3
19953,26.0
19954,21.4
19955,22.5
19956,22.0
19957,5.9
19958,25.8
19959,3.5
19961,54.5
19962,34.0
19966,37.8
19972,28.3
19974,31.3
19977,17.4
19979,11.7
19980,22.9
19981,18.3
19982,22.3
19984,30.3
19985,31.4
19986,28.8
19988,5.5
19990,34.7
19994,16.1
19995,18.8
19996,25.8
19997,41.7
19998,13.3
20000,27.1
20001,28.4
20005,17.3
20007,41.7
20009,32.3
20011,-9.8
20012,23.5
20018,8.4
20019,21.1
20020,23.0
20021,2.5
20023,44.2
20026,40.0
20027,30.6
20030,8.3
20031,2.1
20032,27.5
20034,24.2
20036,23.6
20037,28.9
20039,39.7
20041,13.6
20043,8.2
20044,9.7
20046,10.4
20048,8.2
20049,18.8
20057,2.7
20058,22.6
20060,51.9
20064,31.1
20067,30.5
20069,3.2
20070,23.3
20072,23.6
20073,4.0
20074,18.0
20077,19.7
20078,37.4
20080,32.4
20082,25.4
20083,41.5
20084,31.3
20085,16.8
20086,27.7
20089,15.9
20092,13.4
20096,23.9
20097,18.5
20098,13.3
20099,37.7
20102,12.4
20103,21.2
20104,24.6
20106,39.8
20107,17.2
20108,22.6
20110,-4.7
20113,18.7
20117,16.9
20118,36.7
20119,15.5
20122,49.3
20126,21.7
20128,6.0
20130,19.0
20134,28.8
20137,16.2
20140,3.8
20146,28.8
20147,13.3
20151,33.8
20153,34.8
20155,10.3
20158,14.1
20159,39.0
20160,51.9
20163,5.6
20166,4.0
20167,27.0
20170,19.6
20172,28.8
20175,25.5
20176,7.9
20181,30.8
20184,7.4
20185,31.3
20186,23.2
20187,40.5
20188,19.1
20190,32.3
20191,10.6
20194,32.8
20197,8.2
20201,30.1
20205,21.3
20208,0.5
20210,11.7
20213,29.1
20215,6.0
20216,21.8
20217,24.3
20219,54.5
20221,6.3
20222,33.3
20223,35.6
20224,6.3
20228,13.3
20230,21.2
20233,31.3
20235,8.1
20236,36.1
20239,7.7
20241,28.6
20244,7.5
20245,28.8
20248,17.0
20250,34.7
20252,15.5
20253,3.0
20256,4.3
20257,18.5
20259,15.7
20260,25.6
20261,3.3
20262,41.7
20265,30.8
20266,28.6
20267,25.4
20269,24.0
20270,-12.4
20271,10.4
20273,35.9
20274,18.1
20276,20.3
20277,22.8
20279,21.1
20281,14.4
20282,5.9
20283,36.5
20287,10.6
20289,10.1
20290,33.7
20292,13.3
20293,23.0
20294,32.9
20296,15.9
20298,4.4
20301,3.2
20303,5.2
20304,10.9
20305,8.3
20307,14.3
20308,-2.1
20312,39.5
20313,41.4
20315,21.7
20316,40.9
20317,13.1
20319,19.5
20321,51.9
20323,24.7
20325,40.5
20326,18.5
20327,41.6
20328,18.5
20329,17.5
20331,22.5
20333,31.3
20336,21.9
20338,9.8
20339,6.0
20345,15.9
20346,26.2
20348,17.1
20351,7.8
20352,8.2
20354,33.1
20356,27.3
20357,4.2
20358,49.3
20360,8.6
20361,12.0
20364,7.2
20368,37.9
20370,13.5
20371,18.5
20372,16.9
20374,31.7
20375,20.1
20376,35.9
20378,40.1
20379,9.4
20382,5.2
20383,33.9
20385,16.8
20388,24.6
20390,3.7
20391,12.5
20392,38.9
20393,36.0
20394,8.6
20396,13.3
20399,36.5
20400,37.3
20401,2.5
20402,4.8
20408,-2.1
20409,18.1
20410,3.7
20411,23.7
20413,6.6
20414,9.2
20416,25.2
20417,21.5
20418,24.1
20419,32.9
20420,49.3
20421,21.4
20425,26.6
20426,25.3
20427,17.3
20430,9.7
20432,5.3
20433,31.3
20434,7.6
20438,17.6
20440,14.9
20442,24.1
20444,34.5
20446,15.9
20448,36.3
20449,14.1
20451,8.2
20456,7.8
20457,34.0
20458,51.9
20462,12.4
20467,24.2
20468,12.0
20469,23.8
20470,26.2
20472,17.7
20475,31.0
20476,11.8
20480,20.5
20481,20.5
20483,33.9
20487,14.0
20493,3.7
20494,39.7
20496,10.8
20501,35.5
20506,36.9
20508,-4.7
20511,38.5
20512,3.3
20517,8.1
20518,29.2
20519,27.3
20520,49.3
20521,34.5
20522,38.8
20524,33.5
20527,26.2
20529,11.9
20530,25.0
20531,2.3
20533,26.2
20534,5.4
20536,12.5
20537,39.2
20538,33.5
20540,36.9
20541,24.7
20544,31.8
20545,13.3
20546,35.2
20547,34.6
20548,34.2
20549,26.6
20550,31.3
20552,35.9
20554,17.1
20557,54.5
20559,28.3
20561,26.0
20563,37.5
20564,31.1
20570,18.4
20571,28.8
20572,24.1
20573,33.1
20575,13.6
20577,40.8
20578,10.8
20579,5.1
20583,31.3
20584,5.7
20585,32.2
20588,22.6
20590,6.4
20595,8.2
20598,36.3
20602,36.2
20603,27.3
20605,14.5
20606,3.0
20607,40.0
20610,15.7
20614,5.4
20615,30.2
20617,8.3
20618,54.5
20619,27.4
20620,19.8
20623,25.5
20626,2.1
20627,14.5
20628,3.5
20630,16.4
20631,31.3
20632,2.1
20634,31.8
20637,33.7
20639,34.3
20643,26.2
20645,38.1
20647,20.1
20648,13.8
20649,34.7
20653,20.4
20655,10.5
20656,21.0
20657,2.9
20659,6.2
20660,34.4
20662,16.1
20663,38.4
20668,-12.4
20672,12.9
20673,21.0
20674,39.9
20675,8.1
20676,15.1
20677,41.1
20678,26.0
20681,36.5
20684,33.6
20685,20.2
20686,12.7
20687,10.9
20689,36.3
20695,13.3
20697,39.5
20699,12.6
20701,26.7
20705,25.2
20707,-2.1
20708,38.8
20709,23.0
20711,2.1
20712,39.7
20714,11.9
20715,6.3
20718,11.2
20719,51.9
20720,31.9
20721,42.0
20723,13.6
20724,9.4
20725,27.2
20726,40.5
20728,4.8
20731,28.8
20733,35.3
20734,2.7
20737,8.7
20742,32.4
20744,15.9
20746,20.0
20747,11.3
20748,4.6
20750,27.8
20752,3.8
20753,21.6
20755,39.9
20756,49.3
20757,11.7
20760,29.4
20761,3.4
20762,3.1
20764,23.4
20765,18.2
20768,15.3
20769,23.6
20774,18.3
20776,5.8
20780,14.9
20782,33.9
20785,17.8
20786,17.5
20787,13.5
20792,4.5
20794,13.3
20798,19.6
20800,40.0
20803,18.0
20804,26.0
20806,-2.1
20807,37.1
20809,17.1
20812,27.4
20813,25.4
20814,22.8
20815,12.9
20818,49.3
20819,12.1
20820,4.8
20822,2.5
20826,28.0
20827,18.2
20828,6.3
20829,41.5
20830,38.9
20831,20.2
20832,28.8
20833,20.7
20834,32.1
20838,19.8
20839,40.0
20841,32.6
20842,10.9
20843,21.2
20844,13.3
20845,25.0
20847,14.4
20848,9.9
20849,10.1
20850,41.6
20855,3.5
20856,51.9
20859,23.1
20860,6.4
20861,37.4
20862,19.7
20863,24.9
20865,32.4
20866,35.3
20868,41.7
20869,26.2
20870,13.1
20873,2.9
20874,38.9
20875,12.7
20876,13.7
20878,39.8
20879,34.4
20881,31.3
20885,15.4
20887,25.7
20890,19.9
20891,11.1
20894,10.8
20897,11.3
20900,28.5
20901,14.1
20903,24.6
20904,18.3
20906,30.1
20907,-4.7
20913,15.7
20919,49.3
20921,39.6
20923,11.2
20924,41.4
20931,28.8
20932,21.2
20933,29.2
20934,34.7
20937,31.1
20938,16.4
20939,38.3
20943,10.8
20944,37.1
20946,32.3
20948,14.4
20949,29.8
20956,51.9
20958,25.4
20960,9.2
20962,27.1
20963,41.2
20964,10.6
20969,28.8
20972,17.4
20974,6.5
20975,31.6
20979,21.1
20981,28.8
20983,35.3
20984,11.4
20988,41.8
20989,10.7
20990,24.7
20991,14.1
20994,8.2
20995,19.1
20997,38.5
20998,12.9
21002,21.8
21005,0.5
21008,30.9
21010,39.2
21012,9.8
21013,31.8
21014,24.4
21015,16.0
21016,57.1
21018,23.0
21019,36.3
21020,40.8
21021,11.7
21024,26.9
21025,36.6
21026,28.4
21029,31.3
21030,17.5
21032,20.1
21040,5.7
21041,30.1
21042,23.6
21044,41.6
21045,40.4
21047,12.9
21048,10.0
21050,7.0
21053,32.6
21054,23.6
21056,38.7
21057,17.6
21058,39.5
21060,19.2
21061,16.6
21064,24.4
21066,-9.8
21068,6.1
21069,36.9
21070,35.0
21071,20.5
21073,7.0
21074,37.2
21075,6.9
21076,7.4
21079,41.6
21080,3.0
21086,29.9
21087,25.5
21092,21.0
21094,26.5
21096,39.4
21097,16.8
21101,12.5
21104,5.6
21107,14.1
21108,10.3
21109,25.7
21113,29.8
21115,51.9
21117,19.9
21120,6.1
21121,13.8
21122,41.1
21123,27.8
21124,16.4
21126,2.2
21128,26.2
21129,37.0
21130,26.0
21131,11.5
21132,28.5
21136,21.0
21138,35.6
21139,6.0
21140,31.3
21142,23.6
21145,17.8
21149,40.2
21152,10.8
21154,25.3
21155,8.0
21158,14.9
21159,26.2
21161,36.1
21162,4.2
21166,-7.2
21167,3.0
21168,39.0
21171,17.6
21172,4.1
21174,3.9
21175,5.2
21176,40.3
21178,49.3
21179,34.8
21180,28.7
21184,32.0
21185,5.3
21187,15.1
21190,26.2
21191,5.0
21201,4.8
21202,10.8
21207,25.4
21210,9.7
21214,12.3
21215,54.5
21217,12.1
21218,32.9
21225,26.9
21228,28.8
21229,22.6
21231,7.6
21235,5.5
21238,11.2
21240,28.8
21242,3.9
21243,31.6
21246,22.5
21250,28.2
21251,9.7
21252,36.1
21253,8.2
21255,28.6
21256,17.0
21258,24.9
21263,4.0
21264,0.5
21266,29.2
21273,40.0
21275,54.5
21276,38.5
21285,34.8
21287,33.9
21294,36.1
21295,21.1
21296,9.9
21299,39.3
21300,4.9
21301,21.0
21302,12.5
21303,12.5
21304,7.0
21309,29.1
21312,39.8
21313,28.8
21315,20.6
21316,27.1
21317,27.1
21319,18.5
21321,38.0
21325,-4.7
21334,16.5
21336,14.7
21338,41.6
21340,18.8
21341,26.2
21344,7.1
21346,4.9
21350,21.0
21352,41.7
21355,23.9
21356,37.2
21358,2.8
21363,3.0
21366,10.5
21367,5.3
21368,31.1
21370,17.9
21373,13.5
21374,54.5
21376,21.2
21378,4.5
21381,27.2
21382,41.0
21383,10.9
21385,3.2
21387,28.8
21389,9.6
21393,12.5
21396,6.7
21398,27.1
21399,28.8
21401,26.3
21402,18.9
21403,9.6
21404,38.5
21407,26.4
21411,10.8
21419,4.6
21420,35.9
21421,19.4
21422,2.6
21424,11.8
21425,-7.2
21426,11.0
21428,25.1
21430,4.7
21431,24.9
21433,11.1
21434,9.2
21437,46.8
21438,15.7
21441,33.5
21442,23.3
21446,37.4
21447,27.4
21449,26.2
21450,18.1
21451,20.2
21453,6.1
21454,17.2
21456,26.1
21457,20.4
21458,12.4
21459,35.8
21462,10.8
21464,24.7
21466,35.8
21467,8.6
21470,9.5
21472,9.4
21474,54.5
21475,26.6
21477,32.5
21478,12.3
21479,29.4
21481,13.1
21482,40.5
21483,34.1
21484,31.9
21486,31.3
21488,19.2
21489,30.1
21492,23.7
21496,22.3
21497,36.9
21498,37.4
21499,26.2
21500,5.0
21501,33.3
21502,10.9
21504,3.9
21505,12.3
21506,26.2
21507,22.8
21508,14.8
21509,22.0
21510,5.4
21512,13.3
21513,15.4
21514,30.1
21516,25.8
21518,28.4
21519,29.8
21520,32.8
21524,-7.2
21526,38.4
21528,29.9
21530,8.7
21534,21.3
21536,44.2
21538,21.2
21548,26.4
21549,23.6
21550,8.9
21553,16.3
21554,5.9
21556,8.1
21560,30.5
21561,12.7
21562,8.2
21564,17.6
21565,11.4
21566,8.7
21567,18.5
21570,37.5
21571,40.7
21573,49.3
21576,17.8
21578,2.9
21581,7.8
21582,15.0
21585,23.6
21586,13.9
21589,23.4
21590,2.3
21594,26.9
21596,15.8
21597,26.8
21598,33.9
21601,24.7
21602,21.6
21605,32.8
21608,30.9
21610,13.3
21611,40.8
21616,33.9
21618,9.8
21622,35.2
21623,-4.7
21624,41.1
21626,36.1
21627,14.6
21629,15.9
21631,24.6
21633,27.7
21634,7.8
21635,30.8
21636,49.3
21638,12.8
21641,5.4
21643,4.6
21645,29.0
21646,41.5
21647,40.5
21648,28.8
21649,20.2
21650,10.7
21651,23.1
21655,7.9
21660,13.3
21664,16.2
21666,40.3
21667,20.5
21672,51.9
21673,19.2
21674,6.1
21677,16.6
21678,24.2
21679,31.2
21681,8.4
21683,10.3
21684,33.9
21685,26.2
21686,23.7
21687,16.5
21689,40.2
21692,3.3
21693,39.9
21694,30.0
21695,25.1
21698,31.3
21702,8.6
21703,12.1
21706,27.5
21710,10.8
21712,7.6
21713,20.7
21715,40.5
21716,35.5
21717,8.9
21722,6.4
21723,-7.2
21724,37.5
21725,29.3
21728,22.9
21730,10.1
21733,8.9
21735,46.8
21736,19.7
21739,30.7
21742,41.3
21744,32.5
21745,13.6
21747,26.2
21750,16.0
21751,9.4
21754,20.9
21758,2.3
21760,26.7
21761,10.8
21763,35.8
21764,24.0
21766,7.5
21767,20.8
21769,35.2
21770,4.8
21772,29.3
21773,54.5
21774,8.4
21775,26.5
21776,19.2
21778,37.5
21779,27.2
21785,28.8
21786,15.0
21790,8.3
21793,31.3
21795,15.1
21797,28.8
21798,15.3
21808,29.4
21809,2.8
21810,10.8
21813,40.3
21814,37.4
21815,3.3
21816,6.6
21817,14.1
21818,23.5
21819,12.2
21820,7.2
21822,19.2
21823,-7.2
21824,8.9
21826,29.6
21828,2.5
21829,18.7
21831,41.8
21834,7.4
21835,46.8
21836,11.6
21837,3.5
21840,31.8
21841,23.2
21846,2.1
21848,26.2
21850,38.2
21852,28.8
21853,29.3
21854,37.1
21859,27.6
21860,8.2
21864,9.9
21868,20.3
21871,49.3
21874,34.3
21875,25.0
21877,41.2
21880,32.7
21881,7.7
21882,40.3
21883,21.0
21888,3.2
21889,26.2
21893,36.8
21894,30.4
21897,33.9
21900,10.8
21901,18.9
21902,38.0
21903,19.1
21905,17.4
21909,13.3
21912,24.3
21915,31.1
21917,14.2
21920,11.9
21921,-2.1
21927,36.3
21929,12.2
21931,13.1
21932,12.1
21934,49.3
21937,39.7
21941,17.6
21944,19.4
21946,31.3
21947,12.6
21948,20.6
21952,3.2
21956,23.9
21957,13.6
21958,31.4
21959,15.9
21960,24.1
21969,6.0
21970,31.2
21971,51.9
21973,5.8
21976,18.3
21978,7.7
21979,39.8
21981,35.2
21984,23.6
21986,8.8
21987,2.1
21990,7.2
21992,5.8
21994,16.3
21996,33.9
21998,14.7
22007,2.7
22008,10.8
22011,26.4
22012,34.2
22014,26.6
22019,41.1
22020,18.6
22021,-4.7
22022,31.2
22024,32.9
22025,6.9
22027,35.5
22031,30.3
22032,16.9
22034,46.8
22036,29.9
22039,29.9
22041,7.3
22045,33.7
22046,28.8
22053,24.1
22055,3.9
22056,22.1
22057,23.9
22059,13.3
22060,41.4
22061,27.9
22062,27.4
22064,11.4
22065,38.8
22067,31.6
22071,51.9
22072,40.2
22074,36.0
22075,14.2
22077,41.8
22078,9.0
22080,15.6
22082,36.8
22083,26.2
22085,9.9
22089,16.6
22090,32.9
22091,5.5
22092,38.6
22093,33.1
22096,28.8
22098,34.7
22100,14.8
22103,29.4
22109,10.8
22112,35.4
22115,20.5
22116,30.2
22118,24.1
22121,-4.7
22122,9.1
22124,3.6
22125,5.3
22126,19.8
22130,23.3
22133,46.8
22135,2.7
22138,11.5
22145,12.2
22146,26.2
22147,40.6
22148,34.1
22149,23.3
22150,33.9
22152,2.3
22159,10.8
22160,32.4
22161,20.8
22162,35.5
22163,19.3
22165,34.0
22167,36.0
22168,14.4
22171,54.5
22173,38.0
22176,9.1
22177,41.7
22179,10.8
22180,40.3
22183,28.8
22184,15.1
22185,29.7
22190,13.8
22191,31.2
22195,25.9
22196,26.2
22201,9.2
22203,15.0
22204,33.7
22206,24.5
22208,8.2
22209,19.7
22210,19.8
22213,26.0
22214,41.3
22217,5.5
22219,-2.1
22220,29.2
22222,33.4
22223,41.6
22225,33.9
22226,10.9
22227,30.3
22232,32.3
22233,49.3
22235,20.7
22236,40.9
22239,19.7
22240,12.0
22241,32.7
22245,31.3
22247,29.3
22250,5.5
22251,17.6
22254,24.0
22255,41.2
22257,15.9
22259,36.0
22261,40.7
22265,24.8
22267,38.5
22269,46.8
22272,3.6
22275,32.3
22277,37.1
22279,28.4
22280,40.6
22282,21.0
22283,9.3
22284,33.1
22285,10.1
22295,33.9
22296,30.4
22297,25.8
22299,17.0
22301,2.3
22302,22.6
22303,12.9
22307,13.3
22310,19.3
22311,31.9
22312,7.2
22313,22.3
22314,25.1
22316,22.6
22319,26.7
22320,-4.7
22322,11.1
22323,29.5
22326,38.8
22327,13.2
22328,38.1
22332,49.3
22333,31.6
22337,31.9
22340,31.2
22344,31.3
22345,24.9
22347,32.2
22348,21.2
22350,37.4
22353,35.8
22356,7.1
22357,6.2
22358,13.3
22359,38.3
22365,15.1
22367,17.8
22368,3.9
22370,54.5
22372,33.3
22373,36.0
22374,10.4
22375,29.1
22377,31.9
22378,37.3
22379,29.1
22381,37.3
22382,26.2
22385,7.8
22387,16.6
22390,27.7
22391,39.7
22392,36.4
22394,31.3
22400,22.5
22404,22.5
22405,6.2
22406,32.9
22407,8.2
22412,12.3
22415,11.4
22416,25.0
22418,0.5
22419,17.8
22422,11.7
22424,30.5
22425,37.9
22426,2.3
22429,2.2
22430,54.5
22431,11.5
22432,25.5
22433,26.6
22436,41.2
22437,36.0
22438,39.7
22440,28.1
22443,31.3
22444,13.9
22445,13.1
22446,20.5
22451,38.0
22453,28.4
22454,36.8
22455,26.2
22458,14.4
22460,6.4
22461,40.5
22462,20.1
22463,25.3
22464,35.1
22465,31.8
22466,7.4
22467,13.3
22472,27.6
22473,39.1
22476,13.4
22478,11.3
22479,-9.8
22480,32.7
22483,35.2
22485,41.7
22489,6.4
22490,17.6
22491,39.5
22493,44.2
22495,31.3
22496,12.0
22497,25.2
22498,38.8
22499,10.4
22502,26.4
22503,15.2
22505,23.6
22508,27.1
22509,30.4
22510,24.7
22514,4.2
22515,34.5
22516,30.2
22517,8.2
22518,24.9
22519,19.2
22520,22.3
22522,14.6
22523,22.3
22524,10.9
22528,28.9
22529,51.9
22531,15.2
22536,28.6
22538,33.9
22540,4.9
22541,23.6
22544,21.1
22547,14.4
22552,35.0
22553,33.9
22555,41.6
22557,29.1
22559,21.6
22562,40.2
22563,10.4
22564,41.8
22565,28.1
22566,10.8
22567,5.9
22570,29.5
22573,20.6
22577,40.3
22578,5.8
22579,-4.7
22584,38.8
22586,27.5
22588,9.7
22589,28.3
22591,49.3
22593,27.7
22594,2.1
22596,22.3
22600,10.7
22601,25.4
22602,7.9
22603,26.2
22606,9.9
22614,30.5
22616,13.3
22618,14.9
22619,2.5
22620,38.2
22625,18.4
22629,51.9
22630,25.5
22635,15.6
22637,40.2
22640,15.3
22641,26.2
22643,32.6
22649,31.1
22650,11.0
22651,32.6
22652,40.5
22653,31.3
22654,39.2
22655,29.3
22657,17.7
22659,9.8
22660,20.3
22662,14.5
22663,28.8
22666,10.8
22668,15.2
22670,6.8
22672,26.9
22673,8.2
22676,25.8
22677,4.1
22678,-4.7
22687,7.6
22688,7.1
22691,49.3
22692,12.7
22693,21.5
22695,13.7
22698,33.7
22699,15.2
22701,3.3
22704,28.8
22709,11.7
22710,16.3
22716,10.8
22717,16.7
22718,29.8
22719,41.5
22720,3.7
22723,41.3
22725,3.5
22728,51.9
22730,18.4
22732,20.8
22734,4.9
22735,18.7
22736,14.4
22739,39.5
22740,28.8
22741,33.7
22746,24.5
22747,34.0
22750,34.0
22751,6.4
22752,8.4
22753,28.8
22758,24.0
22759,12.0
22762,28.5
22764,5.7
22765,27.4
22766,8.2
22768,21.1
22770,31.3
22772,33.4
22776,35.7
22777,0.5
22779,15.0
22781,19.5
22783,18.2
22786,38.2
22789,57.1
22790,8.8
22792,8.0
22793,41.1
22796,28.0
22799,28.2
22801,33.9
22802,27.3
22803,16.6
22806,13.8
22808,18.8
22809,29.8
22810,11.9
22811,2.2
22813,23.6
22815,12.3
22817,16.8
22818,34.5
22819,15.6
22820,15.3
22821,7.0
22827,28.8
22829,18.3
22830,30.2
22832,19.1
22833,22.0
22834,21.5
22836,23.6
22839,-7.2
22841,34.1
22844,14.5
22847,33.7
22849,11.3
22851,41.6
22854,7.5
22861,18.4
22862,41.4
22863,21.0
22868,25.1
22870,26.0
22872,12.5
22875,34.9
22876,5.6
22877,3.4
22881,22.8
22884,29.8
22885,35.0
22887,54.5
22888,18.0
22890,17.1
22892,28.4
22893,34.8
22899,7.7
22900,28.8
22904,40.4
22906,37.6
22907,24.5
22908,9.3
22911,29.4
22912,8.0
22913,31.3
22914,24.6
22919,17.0
22920,15.5
22921,2.9
22923,6.2
22924,32.9
22925,8.2
22926,3.5
22927,27.7
22929,38.6
22932,3.0
22933,30.9
22936,0.5
22938,40.2
22940,29.1
22941,8.9
22942,4.2
22943,25.4
22945,10.4
22946,14.4
22947,54.5
22950,3.3
22956,19.5
22958,21.0
22960,8.5
22961,31.3
22962,6.6
22963,9.3
22971,5.0
22972,28.0
22973,23.6
22974,29.4
22977,32.2
22981,34.7
22985,21.0
22986,25.5
22987,27.4
22989,35.6
22992,31.6
22993,8.3
22994,38.8
22995,33.3
22996,26.4
22997,6.5
22998,-12.4
23001,36.0
23009,11.0
23010,21.2
23011,36.5
23014,8.4
23018,38.8
23019,3.7
23021,4.2
23022,24.4
23023,37.4
23024,13.3
23025,22.4
23026,28.1
23027,19.8
23028,13.2
23029,20.2
23036,0.5
23038,4.2
23039,13.4
23041,24.4
23042,21.6
23044,23.7
23046,37.6
23047,33.6
23048,54.5
23055,37.6
23057,39.3
23058,4.5
23059,9.7
23060,31.3
23061,8.4
23066,28.4
23068,35.2
23070,31.9
23072,23.6
23075,3.0
23076,5.2
23079,41.9
23080,18.9
23082,25.1
23083,4.1
23084,13.6
23085,28.8
23088,18.6
23089,18.8
23091,22.1
23095,15.0
23096,31.6
23097,12.8
23098,-4.7
23100,18.3
23102,35.8
23105,18.7
23107,29.7
23110,41.6
23111,2.8
23112,19.1
23114,35.2
23115,12.6
23116,8.2
23120,27.1
23122,18.5
23124,38.7
23125,42.0
23126,9.1
23128,20.4
23129,20.1
23135,5.6
23136,20.6
23137,12.0
23138,21.8
23139,38.2
23142,12.4
23143,19.7
23144,34.4
23146,54.5
23147,30.0
23149,12.9
23151,14.7
23153,20.7
23154,33.0
23156,4.1
23157,19.4
23159,28.8
23162,7.7
23163,26.6
23166,22.0
23167,20.2
23168,38.9
23169,23.8
23170,8.2
23171,22.9
23172,31.3
23173,33.8
23176,7.5
23177,33.9
23179,7.9
23183,18.0
23184,8.2
23187,30.8
23188,30.3
23190,32.2
23191,12.3
23194,19.5
23195,0.5
