0,167.7
1,179.9
2,152.2
4,104.0
5,175.4
6,191.2
7,180.5
9,96.2
10,165.1
11,81.0
12,152.2
15,147.1
18,110.7
19,201.1
20,164.2
23,162.5
24,118.3
25,183.1
26,113.6
28,119.9
30,197.1
31,119.5
33,149.7
35,117.5
36,182.1
39,128.4
40,109.0
41,136.8
44,172.8
45,102.2
47,190.3
49,186.3
52,149.5
54,144.5
55,120.6
57,143.6
58,90.6
60,97.8
65,180.5
67,123.3
68,125.2
74,93.2
75,149.7
77,171.2
78,192.0
80,157.5
82,80.4
84,112.4
86,185.7
89,96.6
92,104.0
93,91.9
95,193.0
96,160.0
98,200.8
104,181.3
106,183.1
107,110.8
110,181.2
111,98.6
117,172.8
119,206.1
120,144.3
121,135.3
127,115.2
128,163.5
130,160.0
131,175.1
135,160.3
141,154.8
145,152.2
146,172.6
147,121.8
152,149.7
154,122.2
156,103.5
158,166.9
161,102.1
162,189.4
163,167.7
164,98.2
167,191.7
168,93.2
175,142.0
182,95.0
184,145.3
186,167.7
191,143.6
198,157.4
199,159.9
200,138.3
203,87.1
206,199.1
207,148.8
208,162.8
209,142.0
210,127.2
211,157.9
212,113.6
214,139.0
221,139.4
222,115.0
223,109.9
224,127.6
226,107.9
227,180.4
228,118.7
229,193.6
231,175.1
232,129.1
233,190.9
234,118.5
236,188.3
238,189.7
239,95.5
241,155.5
243,154.8
244,171.3
246,207.4
248,139.7
252,113.8
253,190.2
254,136.8
256,158.4
258,84.8
260,110.1
261,146.4
264,83.9
267,157.4
269,105.4
270,148.9
272,134.8
273,193.6
278,149.7
281,88.9
282,106.1
289,136.8
291,187.3
292,147.8
293,158.1
294,103.7
296,201.7
301,136.8
302,146.7
303,145.8
305,195.7
306,185.6
309,152.4
312,129.1
313,125.8
314,102.6
315,150.6
317,105.5
318,117.1
323,160.0
326,152.1
330,103.9
334,169.0
335,136.8
337,120.7
340,95.9
341,169.9
344,133.1
346,188.1
347,149.7
353,107.7
358,149.7
359,122.6
361,109.4
362,185.6
363,182.0
364,86.5
366,146.5
367,192.3
369,136.8
370,126.3
371,169.1
372,104.4
373,116.3
376,129.6
377,91.4
378,142.3
379,176.5
380,131.7
381,201.4
383,157.0
384,131.7
386,201.2
388,208.3
390,109.2
391,185.8
393,121.4
399,97.8
404,152.2
405,158.6
407,113.4
409,128.9
410,183.2
411,114.1
413,197.8
415,131.7
416,86.8
419,156.4
423,156.2
426,83.8
427,144.5
428,84.8
430,86.3
434,157.4
438,144.5
441,124.2
445,109.6
446,82.2
449,129.1
455,197.8
456,188.2
459,168.9
461,131.7
463,124.2
464,92.4
465,91.0
467,157.3
469,166.3
472,117.8
473,113.7
474,117.4
475,164.6
478,130.7
479,175.7
480,146.9
481,147.2
482,160.5
484,152.2
485,202.1
489,189.1
492,160.0
493,139.5
495,139.4
497,128.2
501,102.2
502,198.4
505,128.2
506,142.0
508,180.8
509,143.7
514,162.6
515,154.2
517,178.1
518,142.0
519,96.4
520,147.4
523,94.5
525,157.0
527,103.3
529,89.3
530,126.5
533,176.9
534,140.2
539,150.0
540,165.8
541,131.7
542,166.1
550,162.1
552,116.2
553,89.6
554,97.9
558,148.7
561,104.4
564,154.8
566,159.1
568,191.8
571,196.8
572,140.1
573,200.4
575,149.7
577,177.6
579,148.8
583,199.1
584,114.1
585,122.7
586,144.5
587,92.9
588,114.6
589,200.4
590,135.3
593,178.9
594,100.8
595,209.3
599,139.4
604,207.7
605,93.6
608,103.7
610,126.5
611,108.3
612,83.9
613,148.7
614,124.4
615,136.5
616,149.7
619,180.8
620,155.2
621,134.2
623,159.3
627,208.2
629,188.5
632,121.4
634,90.4
635,202.9
636,123.8
638,81.5
642,186.7
643,175.9
644,160.0
646,160.2
648,199.2
655,154.8
656,205.6
659,173.6
661,161.9
662,101.7
663,93.7
664,140.8
666,86.1
667,144.5
669,121.0
671,152.8
672,135.3
673,135.0
674,107.0
675,187.0
678,139.4
679,128.6
681,161.6
685,165.4
688,176.8
689,150.0
690,126.5
694,82.7
695,173.8
696,205.0
698,81.5
699,188.7
700,121.4
701,149.7
702,96.4
705,131.3
706,177.0
707,95.8
711,154.8
712,131.7
714,182.3
715,90.4
717,112.3
719,191.5
720,96.3
721,154.6
724,165.1
728,141.7
734,97.5
735,192.6
736,157.4
741,125.4
744,111.6
745,135.5
747,144.5
748,154.6
753,169.7
754,122.7
755,149.6
756,93.1
758,136.8
759,145.3
764,96.0
765,116.8
766,87.9
767,97.6
768,107.6
770,131.7
771,139.9
773,132.1
774,197.8
775,201.2
777,183.4
779,149.0
780,106.7
781,154.8
782,178.5
787,98.2
789,137.2
790,108.2
793,139.4
795,125.3
798,173.7
799,132.1
800,111.9
801,125.9
804,167.7
807,183.8
810,87.8
811,80.9
813,123.4
816,154.8
818,121.8
821,193.6
824,177.7
827,142.0
828,206.2
829,91.7
831,162.3
834,117.9
835,166.5
838,136.8
839,91.2
840,123.5
841,130.2
843,128.8
846,156.0
847,153.9
849,134.2
851,126.4
853,182.7
855,95.0
857,129.4
858,112.0
860,204.3
862,167.7
865,159.7
867,165.8
868,189.0
872,198.4
873,147.1
876,141.3
880,103.6
881,83.7
882,100.6
883,157.3
884,167.7
885,209.6
887,164.5
889,133.3
892,124.6
894,112.4
896,162.5
898,103.0
899,90.7
902,184.9
907,144.5
909,113.3
910,186.2
912,168.8
915,90.0
916,196.1
918,142.0
921,161.0
922,170.6
923,204.7
924,122.0
928,195.9
930,139.4
933,123.5
935,193.4
937,162.5
939,118.9
942,178.0
943,187.7
944,85.6
946,128.5
948,96.2
949,104.6
953,157.4
955,152.8
957,80.2
959,143.8
961,107.8
964,170.2
968,114.3
969,143.3
972,107.1
975,165.1
976,97.5
978,191.4
980,193.4
984,114.2
985,113.7
986,115.2
987,149.7
988,95.1
989,178.1
990,109.9
993,121.2
994,107.5
995,82.8
996,133.5
999,149.7
1003,183.6
1004,134.4
1006,132.3
1007,170.4
1008,191.9
1010,147.1
1011,165.7
1012,158.9
1013,205.5
1017,199.6
1018,154.1
1020,102.5
1022,185.7
1023,149.8
1024,191.6
1025,202.0
1026,146.2
1027,179.5
1028,193.3
1034,178.1
1035,170.2
1037,125.6
1038,191.2
1047,149.7
1048,110.8
1049,188.1
1052,122.7
1053,177.3
1058,139.0
1060,165.1
1061,190.0
1062,96.0
1064,114.6
1065,105.6
1066,163.4
1071,135.2
1072,151.9
1073,162.5
1076,152.8
1078,95.6
1079,93.7
1082,129.9
1083,188.2
1085,167.7
1086,115.2
1088,173.7
1096,187.8
1097,157.4
1100,106.4
1101,203.1
1106,156.8
1107,178.8
1109,197.1
1110,149.7
1113,145.9
1114,106.7
1116,141.1
1119,164.7
1120,126.7
1122,185.7
1124,146.6
1125,175.2
1127,107.9
1128,116.9
1129,141.7
1130,81.8
1132,112.6
1133,110.2
1134,81.1
1135,175.4
1138,81.6
1139,198.7
1143,202.5
1145,125.4
1146,146.6
1147,160.0
1149,162.8
1151,134.5
1157,83.0
1158,150.8
1160,180.5
1163,131.5
1165,125.3
1166,182.4
1168,206.1
1169,200.1
1171,88.8
1172,170.2
1174,190.2
1175,192.1
1176,110.2
1178,91.0
1179,84.5
1181,164.8
1182,138.5
1183,97.4
1184,167.7
1185,114.9
1186,116.3
1191,82.6
1194,171.9
1196,144.3
1198,154.8
1199,156.9
1200,171.5
1202,93.0
1203,108.0
1205,115.2
1206,209.7
1207,111.2
1210,142.0
1213,151.6
1214,89.8
1215,160.8
1217,172.9
1218,120.2
1222,183.1
1223,204.1
1225,200.1
1231,98.7
1233,116.0
1234,175.4
1235,203.8
1236,83.7
1237,174.9
1239,152.5
1241,99.6
1243,130.7
1244,113.2
1247,152.2
1250,201.3
1252,132.9
1253,103.8
1256,128.5
1258,208.9
1260,172.8
1261,189.5
1263,183.1
1264,104.1
1271,81.8
1272,165.1
1273,188.2
1274,170.2
1276,167.5
1280,102.4
1284,93.0
1285,160.0
1291,149.4
1294,160.8
1297,154.8
1299,84.6
1301,119.7
1302,148.4
1303,92.9
1306,129.6
1308,86.5
1309,149.7
1310,81.6
1313,151.0
1321,183.1
1324,138.3
1325,164.9
1335,172.8
1340,87.3
1341,200.9
1342,181.3
1344,84.1
1347,152.2
1348,123.6
1350,183.0
1351,130.8
1352,184.3
1354,173.8
1355,89.1
1357,126.9
1358,133.2
1359,180.5
1364,150.7
1366,84.1
1368,124.1
1369,141.9
1372,175.4
1373,120.7
1374,87.8
1375,144.3
1377,97.8
1383,204.2
1384,167.7
1386,153.2
1389,81.6
1390,183.8
1395,108.1
1396,140.0
1397,154.8
1401,104.6
1402,181.2
1405,165.1
1406,102.3
1407,92.2
1408,106.5
1410,139.4
1413,185.7
1414,153.6
1418,176.6
1420,141.4
1421,89.8
1422,172.8
1424,130.7
1425,98.5
1426,95.6
1427,184.6
1429,113.0
1432,193.1
1433,172.3
1434,162.5
1435,116.3
1436,133.0
1441,94.5
1443,144.5
1444,154.0
1446,147.1
1447,151.1
1450,209.1
1455,88.9
1459,188.5
1460,172.8
1461,139.1
1463,119.8
1466,132.9
1467,207.8
1468,98.8
1470,109.3
1472,160.0
1475,119.2
1476,191.4
1477,201.0
1480,97.1
1484,152.2
1488,126.9
1490,92.1
1491,131.7
1492,98.7
1494,103.5
1496,198.5
1497,147.1
1498,115.1
1500,90.7
1506,204.1
1509,139.4
1510,198.8
1512,166.4
1513,82.2
1514,115.3
1516,176.4
1518,138.0
1521,170.2
1522,189.5
1525,194.8
1526,128.9
1528,82.9
1529,167.7
1530,134.7
1531,161.3
1534,157.4
1536,121.1
1537,109.2
1542,97.0
1543,133.2
1544,164.7
1545,158.3
1547,147.1
1551,119.0
1555,152.4
1557,206.2
1558,168.0
1559,178.0
1561,115.1
1562,124.8
1564,170.0
1565,156.0
1567,125.6
1568,129.7
1571,172.8
1572,97.1
1573,93.8
1576,166.8
1577,121.6
1578,200.9
1584,160.0
1585,155.6
1586,189.4
1590,102.2
1591,135.9
1597,152.2
1598,194.5
1599,209.1
1601,171.4
1608,175.2
1609,136.8
1610,184.3
1611,195.0
1614,113.2
1616,152.3
1617,182.9
1618,198.1
1620,146.8
1621,134.8
1622,165.1
1624,107.8
1631,129.3
1632,87.6
1633,81.3
1634,157.4
1635,148.3
1637,120.6
1640,113.6
1641,146.5
1646,136.8
1647,110.0
1649,186.7
1650,152.5
1651,91.5
1653,153.4
1655,154.3
1659,167.7
1660,143.8
1662,160.6
1663,153.7
1665,91.1
1667,119.1
1670,86.5
1671,154.3
1672,154.8
1676,174.4
1677,148.8
1679,187.1
1682,196.2
1683,206.7
1684,139.4
1685,131.1
1686,205.1
1689,161.3
1690,188.4
1691,182.1
1693,207.4
1696,139.4
1698,116.2
1700,115.0
1701,136.8
1702,138.4
1703,203.6
1704,145.5
1706,95.2
1709,129.1
1710,154.6
1711,148.6
1712,121.4
1713,136.1
1715,99.2
1717,191.2
1719,101.9
1721,154.8
1723,209.7
1724,105.9
1726,174.5
1728,169.2
1732,176.5
1734,136.8
1735,192.6
1739,126.7
1740,122.8
1741,194.2
1743,179.0
1745,80.3
1746,123.9
1753,82.7
1754,151.3
1758,129.0
1759,154.8
1764,183.1
1770,176.7
1771,147.1
1772,209.2
1773,138.9
1774,157.2
1775,159.6
1777,80.4
1779,147.7
1780,179.9
1781,153.9
1783,136.8
1788,91.7
1789,112.8
1790,132.8
1791,80.3
1793,155.4
1795,191.3
1796,92.0
1797,139.4
1798,153.8
1800,176.4
1809,126.5
1815,99.8
1816,110.6
1817,169.1
1820,106.2
1821,144.5
1822,139.4
1824,188.1
1825,167.5
1826,202.9
1828,155.0
1830,139.8
1833,134.2
1834,173.1
1840,85.8
1841,81.2
1842,183.4
1843,123.8
1844,150.6
1846,123.9
1848,189.5
1851,90.7
1854,191.1
1855,198.3
1857,135.3
1858,210.0
1859,160.0
1861,130.5
1863,85.3
1864,83.0
1865,157.6
1866,189.4
1870,156.6
1871,152.2
1872,116.1
1873,108.5
1877,136.5
1880,195.7
1882,174.0
1884,134.2
1885,111.8
1886,137.9
1887,200.8
1889,148.0
1891,91.1
1892,92.0
1893,158.5
1896,136.8
1897,163.9
1905,170.3
1907,122.9
1908,126.5
1913,98.4
1914,154.5
1917,184.6
1920,99.5
1921,144.5
1925,82.4
1926,162.7
1930,184.6
1931,166.4
1934,134.2
1936,88.9
1937,106.4
1941,179.1
1945,116.1
1946,121.4
1950,133.4
1957,138.0
1958,152.2
1959,128.8
1960,154.7
1961,157.6
1963,116.8
1968,195.8
1969,115.5
1971,142.0
1977,132.6
1979,137.4
1980,173.1
1983,126.5
1985,92.4
1986,151.6
1988,114.7
1989,163.7
1991,82.1
1996,134.2
1997,98.1
2000,180.1
2001,198.3
2003,169.5
2004,99.8
2005,97.9
2006,108.9
2007,138.1
2009,123.9
2010,199.9
2011,117.6
2013,80.1
2015,204.9
2019,130.8
2021,139.4
2023,84.4
2024,125.1
2026,195.3
2027,144.6
2032,169.5
2033,123.9
2036,197.6
2041,140.8
2043,182.7
2044,126.6
2045,111.1
2046,206.2
2049,133.5
2050,100.8
2051,201.0
2056,124.8
2058,139.1
2059,147.1
2061,81.1
2063,91.3
2064,160.6
2066,209.0
2067,152.8
2068,98.1
2070,171.2
2071,144.5
2072,93.9
2073,95.1
2074,134.4
2077,89.0
2078,103.0
2080,162.1
2082,122.6
2083,129.1
2084,153.4
2085,117.3
2089,192.6
2090,131.7
2091,194.8
2093,87.9
2094,158.2
2096,139.4
2097,108.5
2098,114.4
2099,133.1
2100,87.0
2101,96.6
2102,111.5
2105,98.6
2108,131.7
2109,91.3
2113,91.7
2114,194.3
2115,198.0
2116,106.1
2117,197.5
2119,153.8
2120,139.4
2121,208.7
2122,161.5
2125,88.9
2128,91.6
2129,83.8
2131,197.6
2134,126.5
2135,203.0
2137,173.0
2138,81.5
2139,175.6
2144,136.6
2146,118.8
2148,122.3
2149,204.2
2150,180.3
2153,175.0
2157,206.6
2158,152.2
2159,113.6
2165,129.6
2167,86.0
2170,142.0
2171,193.8
2172,165.2
2176,196.2
2178,207.2
2182,134.5
2183,121.4
2186,108.4
2189,162.4
2190,129.8
2191,205.6
2194,93.9
2196,136.8
2197,91.5
2199,110.8
2202,127.6
2208,129.1
2210,173.5
2213,183.8
2215,207.8
2216,205.3
2219,120.2
2220,189.9
2221,136.8
2223,113.7
2225,125.5
2226,204.9
2228,90.8
2230,209.9
2232,149.5
2233,121.4
2234,101.2
2235,121.3
2236,93.2
2237,168.3
2239,187.4
2242,166.9
2244,103.8
2245,108.5
2246,138.9
2250,80.5
2252,131.0
2253,134.4
2254,185.2
2255,201.5
2256,201.1
2257,181.8
2258,142.0
2260,203.9
2263,191.3
2264,115.9
2265,90.0
2266,200.5
2267,194.3
2269,194.9
2271,136.8
2272,133.1
2275,151.0
2276,146.4
2278,189.8
2279,182.7
2281,118.1
2283,118.8
2288,140.7
2290,90.5
2292,100.8
2293,87.8
2295,139.4
2297,107.0
2298,82.0
2299,133.7
2300,201.2
2301,184.8
2302,119.4
2304,153.5
2308,131.7
2309,209.1
2310,206.6
2311,96.3
2313,120.7
2314,115.3
2316,107.2
2317,87.0
2320,134.2
2321,174.4
2322,194.2
2325,178.0
2328,151.2
2333,123.9
2335,203.2
2337,99.6
2339,123.7
2340,162.8
2342,189.7
2343,158.6
2344,177.7
2345,111.1
2346,101.3
2351,113.4
2353,182.1
2354,82.2
2355,132.0
2358,144.5
2359,169.8
2366,184.1
2370,136.8
2371,163.6
2372,91.4
2373,96.1
2379,167.2
2382,116.2
2383,159.6
2384,180.6
2389,151.1
2390,90.4
2391,99.1
2394,112.4
2396,136.8
2397,191.4
2398,135.8
2402,119.9
2403,123.9
2406,156.3
2408,123.9
2409,117.4
2410,193.7
2412,145.3
2419,103.2
2420,126.5
2421,88.4
2422,147.2
2424,156.3
2425,134.6
2426,83.0
2427,132.7
2428,113.8
2430,180.6
2433,116.2
2436,125.2
2438,92.8
2439,93.1
2440,85.7
2442,91.8
2444,186.0
2445,111.1
2452,128.2
2458,142.0
2461,105.5
2464,177.5
2468,90.7
2470,126.5
2473,174.4
2475,112.1
2481,83.8
2482,172.1
2483,105.9
2484,86.6
2486,159.5
2488,203.6
2490,135.1
2493,187.1
2494,111.2
2495,134.2
2496,98.5
2498,172.8
2499,163.4
2507,121.4
2508,145.7
2509,86.9
2517,87.6
2518,101.2
2520,118.8
2522,209.9
2529,106.2
2530,157.3
2531,151.6
2533,111.1
2534,157.0
2538,158.6
2544,204.5
2545,105.9
2548,90.4
2551,185.0
2552,84.2
2553,81.7
2555,118.7
2556,201.8
2557,136.8
2558,185.7
2561,111.3
2562,177.5
2565,144.5
2567,92.9
2569,186.9
2570,123.9
2572,179.1
2578,152.1
2579,85.9
2581,177.4
2582,108.5
2584,195.0
2585,178.5
2590,194.9
2595,134.2
2596,100.2
2600,208.4
2603,126.1
2604,173.0
2606,207.1
2608,118.8
2609,208.8
2610,173.8
2613,113.6
2614,155.6
2615,117.0
2618,207.2
2620,108.5
2622,140.7
2623,148.1
2625,192.8
2626,199.8
2628,161.7
2630,90.0
2631,204.6
2632,105.9
2634,124.3
2636,123.9
2641,101.5
2644,98.2
2648,95.5
2649,141.4
2651,101.6
2652,148.7
2653,192.7
2656,137.7
2657,131.7
2658,176.8
2662,141.3
2664,181.3
2665,157.8
2669,123.9
2670,87.3
2672,109.5
2675,94.6
2676,134.0
2677,135.5
2678,151.8
2679,146.6
2680,181.3
2681,103.4
2684,141.1
2688,188.5
2689,96.9
2693,106.4
2694,118.8
2695,157.4
2696,178.6
2697,162.4
2700,129.9
2702,142.5
2703,180.7
2704,149.6
2705,143.1
2706,111.1
2707,188.9
2710,85.2
2712,194.2
2713,152.8
2714,93.8
2715,197.4
2718,118.8
2719,103.7
2722,117.3
2724,81.9
2731,174.0
2732,111.1
2733,151.4
2735,182.0
2736,140.5
2740,206.1
2741,84.1
2742,102.1
2743,113.4
2744,98.2
2745,192.9
2747,105.2
2748,179.8
2752,107.7
2753,131.4
2755,134.2
2758,104.2
2765,206.1
2767,131.7
2770,95.8
2772,156.1
2773,182.6
2774,130.0
2775,167.0
2777,129.7
2779,125.8
2780,116.2
2781,139.3
2787,131.8
2788,141.4
2789,130.6
2792,137.5
2793,118.8
2796,168.7
2797,88.6
2799,160.6
2801,95.4
2803,155.1
2805,105.9
2806,207.7
2807,201.1
2808,170.6
2811,202.1
2816,202.6
2817,91.6
2818,123.9
2820,87.1
2822,95.0
2823,132.9
2824,118.8
2825,98.9
2827,89.5
2829,142.4
2830,111.1
2832,81.3
2835,105.7
2836,86.0
2842,95.6
2843,202.3
2846,185.7
2847,147.9
2851,113.5
2852,181.6
2853,116.7
2854,129.1
2855,107.5
2856,177.2
2857,94.6
2858,150.0
2860,108.9
2861,97.8
2865,150.4
2867,118.8
2869,118.1
2870,88.6
2873,83.1
2878,119.2
2879,118.8
2881,93.9
2883,135.3
2884,185.2
2888,89.7
2891,108.5
2892,82.0
2894,191.6
2895,86.1
2896,93.1
2897,198.5
2901,129.0
2903,173.6
2904,100.8
2905,179.3
2906,172.9
2908,208.6
2910,170.8
2911,132.6
2914,183.2
2916,129.1
2917,110.0
2920,192.8
2921,159.9
2926,122.9
2927,120.3
2929,121.4
2932,91.8
2934,80.4
2937,82.2
2938,95.4
2939,178.9
2940,198.6
2941,105.9
2942,134.7
2943,179.9
2945,100.2
2946,145.7
2948,185.1
2949,182.3
2954,134.2
2966,121.4
2977,191.2
2978,116.2
2979,95.9
2981,141.4
2982,151.7
2983,121.7
2986,179.4
2988,192.3
2990,97.8
2991,180.2
2992,118.8
2993,197.8
2995,198.0
2996,122.8
2997,92.8
2998,110.4
2999,128.4
3000,153.2
3002,145.9
3003,124.4
3004,105.9
3005,113.7
3006,128.9
3007,202.1
3009,85.9
3011,167.3
3014,157.8
3016,129.1
3018,100.9
3020,175.5
3021,82.5
3023,118.4
3025,118.1
3026,178.6
3027,189.5
3028,116.2
3029,128.1
3030,116.4
3032,180.5
3035,140.9
3036,84.8
3039,88.4
3041,98.2
3043,93.2
3044,139.9
3046,87.9
3051,145.0
3052,121.4
3055,95.9
3057,130.0
3061,114.3
3064,164.8
3065,118.8
3068,149.1
3069,163.4
3072,109.9
3076,166.4
3078,118.8
3079,88.0
3084,92.7
3086,121.3
3087,207.2
3088,148.9
3090,113.7
3095,180.9
3098,195.5
3100,118.5
3102,100.8
3103,89.5
3104,119.2
3108,190.1
3109,171.7
3110,167.3
3111,129.8
3112,101.1
3115,134.2
3117,102.5
3118,113.7
3122,177.7
3124,169.1
3125,132.4
3127,99.2
3128,126.5
3130,138.6
3131,152.2
3132,188.4
3133,209.6
3134,138.3
3135,135.7
3136,97.7
3137,137.9
3138,196.0
3140,113.7
3141,168.8
3143,98.7
3144,202.9
3145,191.8
3150,171.8
3151,202.6
3152,134.2
3153,107.1
3155,151.3
3156,199.7
3158,141.9
3160,169.9
3161,126.6
3165,118.8
3166,96.3
3167,196.1
3171,136.1
3173,145.5
3176,141.8
3177,111.1
3179,86.8
3182,196.5
3183,170.2
3184,183.7
3185,147.2
3186,201.7
3187,209.2
3190,103.4
3193,156.9
3194,110.4
3195,87.5
3198,123.5
3200,128.2
3201,110.6
3203,98.2
3204,80.8
3205,182.5
3208,169.3
3209,202.7
3211,158.5
3212,98.8
3213,106.0
3214,136.8
3216,134.4
3220,90.9
3222,197.6
3226,121.4
3228,157.5
3229,138.4
3233,203.7
3235,180.9
3237,120.9
3238,103.4
3239,168.6
3240,175.9
3242,133.5
3243,87.5
3245,141.6
3247,157.4
3249,140.2
3250,172.4
3251,111.1
3252,124.8
3253,100.6
3254,190.6
3255,156.3
3256,192.1
3257,111.4
3262,181.6
3263,113.8
3264,108.5
3265,189.9
3266,142.0
3268,191.8
3269,177.4
3271,96.9
3272,174.7
3273,103.4
3274,171.8
3276,123.9
3277,102.8
3278,163.7
3279,142.7
3280,93.8
3281,89.8
3284,140.4
3286,128.2
3287,195.3
3289,111.1
3290,135.4
3291,95.7
3292,143.9
3297,135.0
3300,87.4
3301,113.7
3302,118.3
3304,160.2
3306,150.6
3307,94.8
3313,142.0
3318,114.9
3320,151.8
3322,155.0
3323,110.2
3326,134.2
3328,128.7
3332,202.2
3339,116.2
3340,188.6
3347,204.2
3348,81.0
3350,156.0
3351,129.1
3355,184.8
3360,104.3
3361,196.8
3362,177.1
3363,121.4
3367,209.3
3368,207.9
3370,183.3
3371,81.8
3373,209.6
3376,126.5
3377,195.8
3378,104.0
3384,131.7
3386,144.4
3389,111.1
3390,90.1
3394,134.9
3398,83.3
3401,100.8
3402,89.3
3403,140.4
3412,195.3
3413,82.5
3414,136.8
3415,108.1
3416,209.7
3417,132.0
3418,105.2
3419,195.3
3420,85.1
3422,124.5
3426,134.2
3429,81.4
3431,84.3
3432,155.8
3433,107.1
3434,133.7
3435,139.6
3436,113.0
3437,116.4
3438,111.1
3441,155.1
3445,190.9
3447,192.2
3450,126.5
3452,137.3
3454,153.2
3455,181.7
3458,136.3
3459,111.4
3463,152.2
3464,116.2
3465,150.2
3471,204.5
3473,84.2
3475,131.7
3476,123.9
3477,200.9
3481,113.8
3482,100.3
3483,125.5
3485,174.7
3488,113.7
3494,186.3
3495,151.5
3499,94.1
3500,158.5
3501,108.5
3503,176.0
3506,109.2
3508,140.1
3509,100.5
3511,178.6
3513,139.4
3514,103.4
3516,192.0
3517,100.8
3519,154.4
3521,186.9
3526,131.7
3527,108.9
3528,164.8
3530,118.8
3532,180.4
3538,113.7
3543,186.2
3546,87.7
3547,188.0
3550,173.4
3551,134.2
3552,138.8
3553,164.0
3560,187.1
3561,139.0
3563,129.1
3567,101.6
3568,163.8
3569,126.3
3570,106.7
3574,143.6
3575,126.5
3577,161.0
3579,161.5
3582,128.6
3583,138.8
3585,80.1
3587,191.7
3589,113.7
3593,136.5
3597,186.1
3598,134.4
3601,100.8
3602,144.4
3607,127.2
3609,133.7
3613,134.2
3614,193.2
3616,102.1
3617,150.9
3618,166.5
3619,199.9
3620,153.5
3622,189.5
3625,123.9
3628,102.3
3629,86.0
3631,104.2
3632,90.1
3633,128.3
3634,187.3
3637,118.9
3638,113.7
3640,185.8
3642,160.6
3643,116.3
3645,150.5
3647,198.8
3649,156.0
3650,136.8
3654,102.5
3659,100.4
3662,204.4
3663,118.8
3669,112.1
3670,102.5
3673,204.5
3675,111.8
3676,116.2
3679,88.7
3680,100.0
3682,128.7
3685,164.8
3686,123.1
3688,108.5
3689,191.0
3690,87.7
3692,160.4
3695,174.8
3700,103.4
3702,208.6
3704,116.9
3706,183.5
3709,168.8
3710,84.3
3713,139.4
3719,191.2
3720,155.5
3722,185.7
3723,185.1
3725,117.0
3726,126.5
3727,181.8
3728,161.1
3729,178.2
3730,111.9
3732,193.8
3733,118.3
3734,112.0
3737,199.5
3738,111.1
3739,157.0
3745,97.2
3746,185.5
3748,83.5
3749,153.4
3750,134.2
3751,176.3
3752,210.0
3753,110.0
3754,96.4
3755,205.6
3757,115.0
3759,115.1
3762,101.0
3763,129.1
3767,155.4
3773,137.8
3774,123.3
3775,123.9
3779,157.8
3780,120.7
3781,193.7
3782,158.1
3783,97.4
3786,87.3
3788,118.8
3789,98.5
3790,205.7
3792,132.2
3793,89.8
3795,139.8
3796,156.4
3797,116.1
3799,88.5
3800,81.9
3801,103.4
3802,103.7
3805,180.7
3806,114.9
3808,92.1
3809,106.4
3813,134.2
3814,138.3
3815,160.9
3819,183.6
3820,156.2
3824,103.5
3825,121.4
3826,138.0
3827,171.4
3829,93.0
3830,128.4
3834,173.9
3837,108.5
3839,96.7
3841,135.1
3844,203.6
3847,141.5
3848,99.6
3849,190.9
3850,136.8
3854,161.8
3855,131.8
3860,129.8
3861,196.6
3863,131.7
3864,98.4
3867,83.3
3868,160.7
3871,95.7
3872,185.1
3874,109.7
3875,118.8
3876,80.6
3877,157.1
3881,165.8
3882,194.3
3885,197.3
3886,121.0
3888,111.1
3889,97.9
3890,87.9
3893,101.6
3895,93.8
3897,126.0
3898,109.9
3899,123.1
3900,105.9
3901,81.3
3903,92.2
3905,107.3
3907,180.3
3909,93.0
3910,163.2
3911,118.9
3912,136.8
3917,166.6
3918,86.4
3920,190.7
3922,143.1
3923,156.9
3926,129.1
3927,162.9
3928,113.9
3930,158.7
3935,96.5
3937,170.0
3938,116.2
3942,112.7
3944,97.1
3947,206.2
3950,142.0
3955,145.2
3956,110.7
3957,186.4
3958,161.7
3960,167.8
3962,139.4
3963,171.1
3965,150.2
3971,94.2
3975,126.5
3979,103.4
3980,200.6
3985,81.0
3988,126.5
3990,180.3
3991,142.8
3994,85.4
3995,144.1
3997,129.7
3998,154.7
3999,205.0
4000,116.2
4002,194.5
4003,178.5
4004,156.6
4006,208.2
4007,135.9
4008,92.4
4012,193.4
4013,139.4
4016,202.6
4017,101.6
4019,140.7
4020,150.6
4023,117.7
4025,126.5
4028,136.3
4032,87.5
4034,147.6
4035,162.8
4036,182.1
4037,111.1
4040,126.7
4041,148.5
4047,105.0
4049,144.5
4051,176.0
4054,102.3
4055,180.7
4059,170.9
4063,129.1
4065,172.4
4067,142.1
4068,132.6
4069,102.3
4075,118.8
4078,176.2
4080,114.6
4084,142.7
4087,113.7
4088,165.6
4092,181.3
4093,127.1
4094,200.1
4098,192.1
4100,103.4
4102,162.9
4104,121.5
4105,128.5
4108,182.1
4111,130.9
4112,129.1
4113,152.2
4115,102.4
4117,193.0
4120,81.1
4121,93.8
4125,118.8
4126,103.8
4128,174.8
4133,166.3
4137,108.5
4140,162.6
4142,101.8
4143,194.8
4147,119.0
4150,142.0
4159,102.4
4160,133.5
4162,129.1
4168,156.6
4173,112.8
4174,118.8
4175,103.4
4177,81.7
4181,190.6
4182,102.0
4183,101.1
4188,126.5
4189,199.9
4191,91.3
4192,154.1
4193,102.8
4199,81.5
4200,118.8
4201,81.7
4203,171.3
4205,134.3
4209,102.1
4211,170.2
4212,139.4
4213,85.2
4214,133.3
4217,80.0
4218,199.4
4220,195.9
4225,123.9
4228,187.6
4229,86.8
4230,155.5
4234,135.9
4236,104.1
4237,108.5
4238,142.0
4239,117.1
4241,85.1
4242,173.2
4244,159.9
4245,86.5
4246,178.8
4249,139.4
4255,154.7
4258,111.9
4259,179.2
4260,150.0
4261,103.1
4262,134.2
4264,100.8
4265,188.7
4266,92.2
4269,203.5
4272,108.9
4273,190.8
4274,170.3
4275,116.2
4281,134.6
4282,82.8
4283,148.8
4284,140.0
4285,165.7
4286,121.6
4287,121.4
4288,116.5
4289,94.4
4290,169.1
4292,134.3
4293,189.3
4294,141.6
4297,136.7
4298,96.9
4299,108.5
4300,116.6
4302,172.1
4306,172.7
4307,126.0
4308,81.9
4309,122.3
4311,140.2
4312,126.5
4318,106.0
4321,135.1
4322,137.8
4323,135.3
4324,99.1
4325,113.7
4327,109.0
4329,94.5
4330,207.8
4333,195.2
4334,182.2
4336,94.9
4337,108.5
4339,163.6
4340,183.0
4345,113.7
4346,172.6
4347,205.4
4348,119.0
4349,142.0
4351,202.0
4352,173.0
4354,130.6
4355,115.9
4357,186.2
4359,95.1
4360,177.4
4361,139.8
4362,129.1
4365,140.3
4367,165.6
4368,130.5
4371,127.1
4373,203.6
4374,113.7
4380,196.3
4385,177.8
4387,121.4
4390,134.9
4391,170.0
4392,182.7
4394,158.6
4395,103.4
4397,206.7
4398,186.4
4400,123.9
4405,194.4
4406,185.2
4408,141.5
4411,191.6
4412,134.2
4415,93.0
4422,151.6
4423,82.6
4424,121.4
4427,91.3
4432,190.0
4434,160.6
4436,105.9
4441,153.4
4443,102.4
4445,170.7
4449,139.4
4451,85.4
4452,101.9
4455,152.8
4456,137.9
4459,114.7
4460,114.8
4461,179.9
4462,131.7
4472,101.9
4474,118.8
4475,114.9
4486,135.7
4487,129.1
4488,123.6
4489,105.5
4490,187.1
4491,154.4
4492,138.3
4493,178.9
4497,81.4
4498,126.7
4499,118.8
4500,118.1
4501,149.7
4503,176.9
4504,129.2
4505,178.9
4510,134.3
4511,123.9
4512,153.8
4516,116.5
4518,140.8
4519,105.7
4520,136.4
4522,171.8
4523,88.2
4525,113.7
4526,81.6
4527,204.4
4528,157.4
4529,109.5
4532,193.7
4534,161.4
4536,120.7
4537,108.5
4538,176.4
4539,114.8
4540,91.9
4541,174.4
4543,110.5
4544,181.4
4545,158.4
4547,188.6
4549,142.0
4550,84.2
4551,181.5
4554,142.0
4555,90.1
4557,167.4
4558,86.5
4559,143.5
4561,134.2
4563,164.2
4565,133.4
4566,92.2
4568,108.9
4569,145.7
4571,197.8
4572,114.1
4574,111.1
4576,107.6
4577,86.7
4578,174.6
4580,90.7
4585,177.8
4586,189.6
4587,126.5
4591,205.2
4593,125.7
4599,116.2
4601,134.0
4604,196.5
4605,190.4
4608,97.1
4611,194.0
4612,126.5
4613,178.2
4617,132.5
4618,200.2
4620,197.2
4621,181.7
4622,127.8
4623,118.6
4624,121.4
4625,170.2
4627,147.5
4628,186.1
4629,177.1
4632,154.3
4634,202.0
4636,108.5
4637,99.4
4638,141.8
4640,170.5
4641,155.0
4642,94.3
4643,181.0
4645,120.0
4647,85.3
4648,142.0
4650,139.1
4654,189.4
4655,153.1
4657,82.7
4658,206.9
4662,126.5
4666,127.2
4667,177.9
4668,135.7
4669,123.9
4670,84.7
4671,171.8
4672,137.7
4674,108.5
4675,198.9
4678,157.0
4679,111.9
4681,83.5
4682,142.8
4683,137.2
4685,107.4
4686,129.1
4689,186.3
4690,141.2
4694,182.9
4698,197.6
4699,126.5
4700,151.2
4701,97.6
4702,175.5
4705,134.7
4706,195.4
4708,141.8
4710,154.7
4711,123.9
4712,116.6
4714,90.6
4716,82.1
4718,146.5
4719,146.1
4721,145.9
4723,122.8
4724,116.2
4725,145.3
4727,122.8
4730,157.7
4731,187.4
4732,130.3
4733,177.7
4734,154.4
4737,98.2
4740,106.6
4741,168.4
4743,102.0
4746,147.0
4748,139.4
4753,160.3
4756,190.2
4759,178.3
4760,131.7
4765,208.4
4768,83.1
4769,189.7
4770,183.8
4771,162.9
4772,118.8
4773,190.3
4774,189.7
4775,162.8
4776,154.2
4781,98.1
4782,95.3
4783,139.2
4785,114.1
4786,121.4
4788,191.3
4789,134.9
4790,171.0
4792,90.1
4793,192.4
4796,168.8
4797,137.6
4798,111.1
4799,132.9
4800,106.8
4801,189.1
4802,179.1
4804,132.3
4805,101.2
4807,201.0
4808,167.9
4810,126.5
4811,194.4
4812,141.7
4813,202.7
4814,155.4
4815,103.1
4817,188.8
4823,113.7
4825,189.1
4826,90.4
4827,209.4
4828,186.1
4829,201.0
4833,143.8
4835,111.1
4836,153.0
4837,134.4
4839,122.0
4842,194.9
4844,106.5
4846,184.6
4847,144.5
4848,140.3
4850,139.5
4852,198.9
4855,80.8
4856,135.0
4857,188.0
4859,159.4
4860,129.1
4870,102.3
4871,156.4
4872,100.5
4873,111.1
4875,106.8
4876,170.4
4877,149.6
4880,204.0
4883,110.5
4884,195.0
4885,121.4
4888,167.7
4889,110.9
4890,122.5
4892,169.3
4896,163.2
4897,116.2
4899,170.0
4902,94.7
4903,126.6
4905,153.5
4907,207.2
4910,129.1
4911,138.5
4913,209.2
4914,157.8
4916,88.3
4919,124.2
4921,150.0
4922,104.7
4923,118.8
4926,127.8
4928,209.5
4932,149.0
4934,204.6
4935,108.5
4938,115.3
4940,153.0
4942,146.6
4943,180.9
4945,165.6
4947,142.0
4948,111.9
4949,87.1
4950,99.1
4958,193.3
4959,168.2
4960,134.2
4961,176.2
4963,140.6
4966,150.0
4970,133.9
4971,145.3
4972,118.8
4973,200.6
4974,130.2
4983,129.0
4985,134.2
4986,163.3
4988,166.2
4989,168.1
4991,124.7
4993,163.9
4997,155.4
4998,121.4
5000,178.2
5001,197.4
5009,86.7
5010,123.9
5012,129.3
5021,190.6
5022,116.2
5028,194.7
5029,155.5
5030,174.0
5031,98.4
5032,190.5
5033,146.4
5034,122.7
5035,100.8
5039,106.0
5040,138.3
5042,86.0
5045,141.9
5047,136.8
5049,201.8
5052,207.1
5053,133.6
5056,118.8
5060,121.4
5061,138.0
5063,86.2
5064,84.0
5065,161.8
5067,84.1
5068,163.3
5072,103.4
5073,192.6
5074,191.7
5076,139.1
5077,132.3
5082,148.7
5085,121.4
5086,158.1
5089,133.9
5090,102.6
5094,193.1
5097,113.7
5098,118.5
5099,118.9
5101,148.5
5102,177.8
5104,83.9
5109,121.4
5119,190.6
5120,139.5
5121,147.1
5123,113.7
5126,165.8
5132,205.6
5135,100.8
5140,203.7
5142,103.9
5145,164.1
5146,162.1
5147,134.2
5148,91.5
5150,134.5
5153,80.3
5156,201.8
5158,169.1
5159,121.4
5160,173.5
5170,195.0
5171,130.0
5172,105.9
5174,94.3
5179,184.0
5182,132.8
5183,97.2
5185,126.5
5186,152.5
5187,148.9
5188,189.3
5190,111.2
5191,95.6
5193,87.4
5197,123.9
5198,178.5
5200,102.8
5202,200.0
5203,105.3
5204,197.2
5206,114.4
5207,115.0
5209,122.4
5210,121.4
5213,157.3
5214,161.9
5215,103.9
5217,112.9
5218,209.8
5219,168.5
5221,193.8
5222,108.5
5226,197.0
5227,90.6
5229,81.4
5231,177.0
5233,185.4
5234,98.2
5235,201.0
5245,136.8
5246,98.5
5247,101.1
5248,194.0
5251,107.9
5252,157.6
5253,156.1
5256,202.0
5259,131.7
5265,100.3
5266,109.0
5267,127.4
5268,81.2
5269,151.7
5270,114.6
5271,116.2
5273,138.7
5275,187.0
5277,200.5
5279,87.6
5281,159.3
5283,121.4
5285,164.4
5286,138.4
5287,97.1
5291,178.0
5292,111.5
5293,121.4
5296,113.7
5299,189.8
5300,195.9
5301,120.1
5304,125.8
5308,129.1
5311,108.9
5312,179.3
5313,113.3
5315,178.0
5316,171.0
5317,186.0
5318,182.7
5319,181.3
5320,116.2
5321,118.8
5324,82.1
5325,111.6
5331,132.0
5332,171.2
5334,111.1
5336,189.3
5342,196.9
5345,151.1
5346,144.5
5347,95.5
5349,193.7
5350,154.1
5354,209.8
5357,112.3
5358,129.1
5359,128.0
5361,202.1
5362,132.0
5363,99.8
5366,105.7
5367,96.5
5368,135.6
5370,111.1
5371,129.6
5376,184.9
5379,158.6
5381,161.2
5382,148.8
5383,116.9
5384,123.9
5386,89.6
5387,128.5
5388,120.4
5390,186.2
5395,205.8
5396,116.2
5398,191.2
5404,166.7
5408,129.1
5410,102.6
5414,177.3
5416,203.7
5421,111.1
5422,104.2
5424,148.2
5425,104.0
5429,205.0
5430,153.3
5431,96.7
5433,98.2
5437,129.9
5439,131.8
5442,205.6
5444,134.2
5446,203.3
5448,154.0
5449,133.1
5450,104.6
5452,124.8
5455,159.3
5456,156.7
5457,129.1
5458,195.7
5461,158.1
5463,186.7
5464,156.4
5465,175.8
5466,182.8
5467,175.4
5470,118.8
5473,112.2
5476,121.7
5477,151.9
5479,142.1
5480,206.4
5481,152.3
5482,121.4
5483,140.3
5487,144.4
5488,159.4
5489,128.4
5491,181.5
5492,81.6
5494,105.9
5496,95.8
5497,113.1
5499,102.4
5500,148.0
5503,192.7
5504,112.7
5505,159.0
5506,112.1
5507,129.1
5508,122.6
5511,158.4
5513,177.0
5515,206.9
5519,157.9
5520,118.8
5523,100.1
5526,96.4
5528,81.3
5532,113.7
5533,80.6
5535,88.6
5537,118.7
5538,164.8
5539,165.6
5542,140.6
5544,144.5
5549,131.9
5553,189.2
5554,174.2
5556,202.7
5557,131.7
5559,204.4
5561,119.6
5562,164.8
5564,109.5
5567,84.4
5569,116.2
5571,117.0
5572,201.7
5573,89.2
5577,119.1
5578,82.2
5579,147.2
5580,154.7
5581,116.2
5583,121.8
5584,197.1
5586,189.7
5587,141.1
5588,84.3
5589,159.7
5595,108.5
5598,136.5
5601,122.5
5602,167.3
5603,118.6
5604,176.5
5606,166.7
5607,131.7
5609,170.6
5611,118.6
5614,81.5
5615,160.7
5618,172.2
5619,121.4
5620,99.7
5623,147.4
5626,110.4
5627,188.1
5628,84.0
5629,201.2
5631,209.1
5632,105.9
5633,135.7
5634,202.5
5638,93.3
5639,202.6
5640,152.6
5641,160.7
5642,96.3
5644,134.2
5645,201.9
5646,202.2
5648,187.5
5651,150.9
5653,206.5
5654,186.1
5656,164.4
5657,126.5
5658,191.4
5659,132.3
5660,97.1
5662,80.6
5663,141.6
5669,113.7
5671,127.4
5672,161.6
5673,80.4
5675,160.0
5676,133.2
5677,201.7
5682,118.8
5683,136.0
5684,123.3
5687,142.4
5690,178.5
5691,164.7
5692,175.2
5693,205.3
5694,111.1
5696,117.7
5698,190.1
5700,120.3
5701,183.4
5706,129.1
5711,120.0
5712,113.5
5713,172.4
5715,121.3
5717,205.4
5718,165.4
5719,142.7
5720,116.2
5722,160.4
5723,190.6
5726,92.6
5727,86.7
5730,143.7
5731,105.5
5732,103.4
5733,102.0
5737,144.5
5739,206.2
5741,88.1
5744,139.4
5746,134.5
5747,178.5
5751,179.0
5753,103.3
5755,85.8
5756,129.1
5757,170.4
5759,188.3
5761,176.7
5764,155.9
5765,173.9
5766,156.8
5768,147.0
5769,113.7
5771,105.1
5773,139.8
5776,104.7
5780,175.1
5781,118.8
5783,185.3
5785,190.7
5786,120.4
5790,190.1
5793,117.3
5794,108.5
5795,159.2
5797,181.4
5799,144.1
5801,83.3
5802,177.5
5804,149.5
5805,192.6
5807,123.9
5808,180.7
5812,121.0
5815,88.5
5816,205.9
5819,116.2
5822,80.7
5823,188.8
5825,133.8
5826,89.9
5827,178.4
5829,89.3
5831,103.4
5835,141.3
5836,84.4
5839,199.5
5840,152.5
5841,181.6
5842,126.4
5843,136.8
5844,142.8
5848,111.1
5850,165.5
5852,192.3
5853,157.1
5855,90.2
5856,125.7
5857,129.1
5858,105.0
5860,113.3
5864,158.7
5868,89.5
5869,116.2
5871,183.3
5872,146.2
5874,124.8
5875,150.8
5879,90.3
5881,126.5
5882,175.8
5885,92.4
5887,196.4
5891,138.7
5893,115.3
5894,116.2
5896,184.1
5901,131.0
5902,127.5
5903,158.3
5904,95.2
5905,131.8
5906,123.9
5907,164.1
5914,186.8
5915,80.4
5919,111.1
5920,117.1
5926,156.4
5927,196.0
5932,98.2
5934,184.2
5935,173.2
5936,121.5
5939,120.5
5943,134.2
5945,150.1
5946,208.0
5947,209.3
5948,112.3
5949,200.0
5950,172.5
5952,99.4
5955,121.4
5956,90.6
5960,150.2
5963,168.5
5964,156.5
5965,131.2
5967,113.7
5969,100.8
5971,202.2
5972,175.1
5974,111.0
5977,128.3
5980,111.1
5985,186.7
5987,152.1
5990,169.0
5991,116.2
5993,98.2
5994,206.4
5995,176.7
5996,165.8
5997,149.4
5998,81.6
6000,130.9
6001,100.5
6002,170.7
6003,91.8
6004,129.1
6005,197.2
6017,121.4
6018,116.7
6020,136.9
6022,158.0
6023,192.7
6025,173.9
6028,124.5
6029,111.1
6031,134.3
6032,106.0
6033,201.2
6035,158.6
6041,131.7
6042,140.9
6043,114.3
6044,82.7
6046,198.0
6047,197.0
6049,179.1
6051,189.3
6052,143.4
6053,145.7
6054,113.7
6056,205.4
6057,152.6
6059,209.0
6060,85.5
6061,101.9
6064,207.3
6065,173.0
6066,157.9
6067,116.2
6068,160.0
6069,150.3
6070,174.0
6071,170.1
6072,195.1
6074,116.7
6076,108.9
6079,113.7
6080,91.9
6082,168.5
6084,198.4
6087,185.4
6088,129.2
6091,108.5
6093,92.5
6094,149.8
6097,152.0
6098,152.9
6100,124.6
6103,184.0
6104,142.0
6109,111.3
6113,165.6
6114,94.5
6117,126.5
6118,165.3
6119,84.2
6121,209.2
6123,183.8
6124,167.4
6128,100.7
6129,108.5
6130,82.4
6132,109.4
6133,197.6
6141,131.7
6143,168.2
6144,141.9
6148,203.8
6149,127.2
6150,116.2
6154,123.9
6155,142.4
6156,170.8
6158,182.7
6165,192.3
6166,118.8
6169,168.3
6170,168.3
6172,97.9
6174,163.3
6176,105.6
6178,111.1
6179,137.7
6180,88.3
6181,130.8
6186,89.5
6189,160.3
6191,124.1
6192,98.2
6195,111.7
6198,115.4
6199,193.9
6201,143.2
6202,130.4
6203,131.7
6204,133.1
6209,193.5
6212,103.4
6215,121.4
6216,122.5
6219,178.7
6220,128.9
6223,80.4
6224,110.2
6225,81.8
6227,108.5
6230,177.4
6231,89.6
6232,149.5
6235,82.1
6240,126.5
6241,128.6
6250,185.7
6253,116.2
6256,197.9
6258,80.8
6259,197.9
6261,147.2
6262,86.3
6263,200.7
6264,86.7
6265,121.4
6266,110.7
6267,131.5
6270,111.0
6272,187.8
6278,108.5
6285,128.2
6286,96.8
6287,149.0
6289,163.3
6290,111.1
6291,164.1
6292,135.8
6293,188.9
6294,161.1
6295,156.4
6296,81.4
6299,108.1
6301,85.7
6302,144.5
6312,95.4
6314,101.4
6315,184.7
6316,134.2
6317,110.8
6322,83.7
6323,127.4
6325,83.0
6328,113.7
6332,114.1
6334,100.6
6335,106.0
6336,202.6
6340,123.9
6343,178.4
6344,153.9
6347,170.5
6352,116.2
6354,127.7
6355,191.5
6356,154.7
6358,187.2
6360,206.0
6362,85.4
6363,161.0
6365,123.9
6366,149.3
6369,85.6
6370,192.2
6372,140.3
6373,199.2
6375,203.2
6376,201.5
6377,111.1
6378,166.0
6379,113.5
6380,115.5
6383,161.9
6387,203.7
6388,85.7
6389,117.2
6390,100.8
6391,152.4
6393,158.6
6395,170.2
6396,200.3
6397,109.3
6398,91.8
6399,152.5
6400,162.0
6401,95.7
6402,151.2
6403,131.7
6407,130.6
6408,161.8
6415,118.8
6417,148.8
6423,116.8
6425,189.1
6427,103.4
6431,116.8
6432,122.9
6433,207.4
6434,100.4
6436,101.8
6437,183.2
6439,123.9
6440,128.2
6441,96.0
6442,160.1
6443,86.8
6444,170.9
6445,129.4
6446,110.5
6448,185.5
6449,93.3
6453,118.8
6455,134.6
6456,98.1
6457,150.4
6458,84.0
6459,81.4
6465,121.4
6466,138.4
6467,163.2
6468,178.5
6469,197.2
6474,132.8
6477,108.5
6480,97.0
6481,125.9
6483,209.3
6484,127.6
6486,127.5
6487,89.2
6488,204.1
6490,98.2
6491,168.5
6492,88.8
6494,110.0
6495,174.4
6496,203.6
6497,135.0
6500,185.2
6501,134.2
6505,121.1
6506,87.0
6508,148.5
6511,154.4
6512,128.5
6513,131.7
6514,103.3
6515,119.3
6516,107.2
6522,156.8
6524,120.0
6526,118.8
6527,153.7
6528,87.4
6529,128.8
6530,114.3
6532,176.9
6534,107.8
6535,168.4
6538,121.6
6539,121.4
6541,202.1
6546,199.3
6548,155.9
6549,121.5
6551,105.9
6553,139.8
6555,154.4
6556,175.6
6560,178.6
6562,201.2
6563,121.4
6564,162.8
6566,149.1
6567,136.5
6568,176.7
6569,119.0
6572,173.4
6573,155.5
6574,135.9
6576,113.7
6579,130.5
6580,96.0
6586,110.6
6587,194.5
6588,172.8
6589,105.9
6590,144.3
6591,161.5
6592,152.7
6597,131.5
6599,204.1
6600,128.7
6601,139.4
6602,140.9
6603,180.4
6604,206.2
6605,209.2
6609,170.2
6612,190.2
6614,123.9
6619,184.2
6623,91.5
6625,114.5
6626,105.9
6629,191.2
6631,184.7
6635,93.0
6636,104.1
6637,83.3
6638,116.2
6639,126.8
6642,143.6
6643,108.2
6645,190.5
6646,98.7
6648,171.8
6650,170.8
6651,108.5
6652,107.7
6655,168.7
6656,107.3
6657,209.8
6658,132.6
6659,113.7
6660,104.2
6661,152.9
6664,123.9
6665,97.3
6666,111.2
6667,101.3
6669,131.3
6671,184.5
6673,205.3
6675,128.9
6676,116.2
6677,191.7
6678,164.9
6680,113.6
6682,137.1
6686,199.4
6688,100.8
6691,160.9
6692,172.2
6697,109.1
6699,149.5
6701,136.8
6702,124.0
6706,98.3
6709,97.8
6712,169.2
6713,123.9
6715,82.8
6720,92.2
6723,169.5
6725,80.0
6726,113.7
6727,135.0
6730,104.6
6732,178.9
6733,102.8
6734,116.3
6735,98.0
6738,131.7
6741,205.0
6745,144.3
6747,89.2
6748,156.8
6749,99.4
6751,111.1
6752,159.1
6753,184.0
6754,142.8
6763,118.8
6764,186.6
6765,192.1
6766,122.7
6769,114.9
6772,124.5
6775,108.5
6776,196.6
6778,87.5
6779,200.4
6780,122.1
6782,153.9
6783,159.2
6787,89.0
6789,98.2
6790,151.6
6792,108.7
6795,83.8
6796,173.2
6799,131.1
6800,134.2
6801,117.0
6802,112.0
6804,167.5
6806,104.0
6809,178.6
6811,209.1
6812,126.5
6819,174.2
6821,99.6
6822,96.7
6823,138.4
6824,113.7
6825,140.7
6826,106.5
6831,89.8
6832,195.3
6837,113.7
6840,145.8
6842,204.8
6843,204.1
6845,132.2
6847,118.8
6848,142.2
6850,100.8
6852,200.3
6853,137.6
6854,107.0
6858,127.0
6861,110.9
6862,123.9
6863,183.7
6864,123.6
6868,120.7
6869,161.1
6873,183.5
6875,116.2
6877,97.6
6878,117.4
6879,174.6
6880,84.9
6883,141.5
6887,105.9
6891,172.0
6893,174.6
6895,97.2
6896,144.5
6897,82.4
6899,139.4
6900,164.2
6902,136.5
6904,181.6
6905,127.7
6906,101.7
6907,138.9
6909,97.9
6912,123.9
6913,154.0
6915,80.3
6916,200.4
6917,188.0
6918,81.8
6919,85.2
6921,171.9
6923,104.8
6924,146.1
6925,108.5
6926,207.7
6931,162.5
6934,183.2
6935,202.7
6936,194.8
6937,113.7
6938,183.4
6939,203.0
6940,174.8
6943,116.8
6945,138.2
6947,121.0
6948,143.1
6949,113.7
6951,156.2
6952,93.6
6953,200.3
6955,207.5
6957,170.9
6958,154.2
6960,143.0
6961,154.7
6962,131.7
6963,150.4
6969,116.1
6970,209.6
6972,182.6
6973,113.5
6974,116.2
6975,198.8
6976,145.8
6977,84.5
6978,176.2
6980,195.5
6984,185.8
6987,100.8
6991,81.8
6994,116.7
6996,171.3
6997,166.0
7000,134.2
7002,98.6
7007,134.2
7009,193.4
7011,118.6
7012,129.1
7013,96.6
7016,176.9
7017,206.8
7020,113.4
7022,129.5
7024,116.2
7027,97.0
7029,100.4
7034,151.2
7036,118.8
7037,171.5
7039,194.5
7040,184.7
7041,89.7
7043,192.7
7044,93.6
7046,160.1
7050,108.5
7051,153.1
7053,124.1
7055,112.7
7057,80.5
7062,118.8
7067,89.5
7069,169.1
7070,136.8
7072,170.9
7073,199.5
7074,113.7
7075,101.2
7076,198.3
7081,186.2
7084,206.4
7085,171.4
7087,103.4
7090,119.5
7092,144.7
7094,102.4
7099,139.4
7100,195.6
7102,162.8
7103,124.3
7109,173.0
7110,177.0
7111,129.1
7112,170.5
7117,88.3
7119,146.7
7120,145.2
7124,111.1
7127,98.4
7131,205.5
7132,106.7
7133,148.4
7134,151.0
7136,142.8
7137,118.8
7138,122.9
7139,151.1
7140,190.2
7141,88.8
7143,147.9
7144,130.0
7146,90.0
7148,175.1
7149,108.5
7150,170.7
7151,113.2
7152,163.5
7153,132.1
7154,140.8
7155,207.3
7156,157.9
7159,206.4
7161,126.5
7166,205.9
7167,130.9
7168,177.9
7171,122.2
7172,135.7
7173,137.7
7174,116.2
7176,115.0
7177,180.8
7178,130.3
7179,194.9
7180,150.4
7181,206.2
7186,191.3
7187,105.9
7188,191.6
7193,137.8
7194,106.2
7197,184.5
7199,134.2
7204,86.6
7205,150.6
7209,154.6
7210,98.3
7211,90.9
7212,126.5
7214,132.1
7220,81.0
7221,134.4
7222,126.3
7223,121.4
7224,105.9
7225,138.5
7227,145.9
7230,203.6
7231,123.0
7232,166.5
7233,148.0
7235,131.8
7236,123.9
7240,122.6
7242,178.6
7246,195.5
7247,125.8
7249,113.7
7250,208.9
7255,102.4
7257,141.1
7258,115.7
7262,123.9
7263,80.9
7264,130.2
7265,138.0
7269,147.7
7270,185.2
7273,185.1
7274,111.1
7276,191.3
7277,117.9
7279,87.5
7283,89.3
7284,129.7
7286,98.2
7287,113.2
7288,93.8
7295,102.8
7297,113.4
7298,134.2
7299,119.3
7301,88.9
7302,146.6
7305,159.5
7306,201.3
7307,80.6
7309,184.2
7310,126.5
7312,188.3
7313,106.2
7316,132.8
7317,149.5
7318,135.4
7319,146.6
7322,110.3
7323,118.8
7325,121.4
7326,141.1
7328,85.4
7330,88.3
7331,82.6
7333,111.9
7335,116.2
7336,105.2
7339,194.6
7340,118.8
7341,201.8
7346,100.0
7347,107.6
7348,103.4
7349,163.6
7350,87.9
7352,85.9
7354,170.2
7357,175.1
7358,150.3
7360,123.9
7361,175.7
7363,109.0
7367,207.8
7368,181.0
7369,116.1
7372,116.2
7375,89.0
7382,115.0
7383,155.2
7386,108.5
7390,155.9
7393,136.3
7394,88.6
7395,159.0
7396,157.5
7398,142.0
7399,192.8
7401,199.5
7402,196.4
7404,194.1
7410,123.9
7411,97.5
7412,115.5
7414,208.7
7416,152.2
7417,94.2
7418,127.1
7419,159.2
7420,148.5
7421,118.8
7422,108.5
7423,198.9
7425,140.3
7429,126.0
7431,180.1
7432,177.7
7435,111.1
7436,144.0
7447,208.4
7448,105.9
7452,206.6
7453,81.8
7455,121.8
7460,129.1
7461,163.2
7463,203.9
7464,154.5
7465,168.0
7467,195.5
7468,156.0
7471,161.6
7473,113.7
7477,151.3
7482,98.2
7485,100.8
7486,207.7
7489,80.1
7490,173.2
7496,112.6
7497,134.2
7500,99.1
7506,193.3
7508,191.4
7509,184.2
7510,126.5
7512,206.0
7513,126.0
7517,149.0
7518,206.7
7523,113.7
7526,98.2
7527,147.7
7530,159.4
7532,193.2
7534,140.9
7535,121.4
7541,189.8
7542,100.0
7543,109.6
7545,153.3
7546,137.2
7547,108.5
7551,139.8
7555,117.1
7557,136.8
7559,127.1
7560,121.4
7563,127.5
7564,203.3
7568,165.3
7572,111.1
7573,88.7
7576,196.9
7577,175.9
7580,209.1
7582,169.3
7583,173.8
7584,106.2
7585,100.8
7586,145.1
7587,178.1
7590,96.8
7591,158.8
7592,182.3
7593,147.6
7596,131.5
7597,146.9
7598,136.8
7599,201.9
7601,93.8
7603,134.6
7606,111.8
7608,179.6
7609,101.9
7610,121.4
7611,195.9
7614,84.0
7616,163.6
7619,173.9
7620,129.0
7622,105.9
7623,161.0
7626,116.4
7627,139.7
7630,189.0
7631,118.0
7634,113.7
7636,147.1
7637,92.8
7638,207.7
7639,105.0
7640,80.3
7641,132.4
7642,189.6
7644,107.8
7647,205.7
7648,108.5
7649,198.9
7650,91.2
7651,92.0
7654,185.6
7656,200.0
7657,183.8
7660,121.4
7661,91.7
7662,150.3
7663,99.4
7666,181.3
7667,195.2
7671,187.0
7672,113.7
7674,186.8
7676,153.2
7677,133.9
7678,151.3
7683,188.7
7685,98.2
7686,201.4
7687,200.6
7688,110.6
7692,139.8
7693,98.8
7694,165.0
7695,95.5
7696,129.1
7697,161.2
7699,203.0
7700,83.5
7701,99.7
7702,102.3
7705,141.3
7707,187.6
7708,123.9
7711,87.4
7713,172.1
7716,183.6
7717,207.2
7718,121.1
7721,121.4
7723,115.5
7726,183.9
7730,150.5
7731,162.9
7734,118.8
7735,87.2
7736,195.5
7738,116.5
7739,140.6
7741,138.1
7743,122.0
7744,113.7
7745,161.5
7746,105.9
7748,137.9
7751,144.5
7755,120.8
7756,157.1
7758,129.1
7760,90.1
7761,186.4
7763,192.4
7765,150.3
7767,169.1
7769,189.6
7770,177.4
7771,116.2
7774,140.2
7778,88.6
7779,155.8
7784,103.4
7785,121.7
7787,158.3
7789,152.5
7790,119.3
7793,146.3
7794,159.1
7795,172.6
7796,136.8
7797,130.8
7798,132.6
7800,151.5
7801,145.7
7803,151.6
7804,137.6
7805,106.7
7807,83.0
7808,100.2
7809,123.9
7810,82.2
7815,142.3
7817,90.3
7821,105.9
7825,110.9
7827,131.9
7829,94.1
7831,94.9
7833,103.4
7834,162.1
7840,166.8
7843,83.6
7845,190.5
7846,98.2
7848,176.0
7852,151.1
7853,184.9
7855,93.0
7856,200.7
7858,129.1
7862,164.1
7864,150.2
7866,163.7
7867,190.2
7869,181.9
7870,121.4
7874,92.8
7875,179.7
7876,186.0
7878,83.5
7882,105.9
7883,187.6
7884,80.9
7886,132.2
7892,173.0
7895,129.1
7898,190.5
7899,157.5
7900,193.5
7903,86.1
7904,156.2
7905,108.5
7907,116.2
7908,181.3
7910,156.6
7912,98.7
7913,151.9
7914,196.2
7915,109.1
7916,197.7
7917,146.5
7918,200.9
7919,136.8
7920,116.2
7922,119.5
7924,197.3
7926,199.8
7929,111.5
7931,121.1
7932,113.7
7934,134.7
7935,122.6
7937,146.4
7942,133.8
7943,147.4
7945,103.4
7948,174.8
7950,109.3
7951,206.7
7952,124.0
7953,169.8
7954,81.7
7957,131.7
7958,143.3
7961,110.7
7962,93.2
7963,102.2
7969,118.8
7972,184.7
7973,196.8
7975,108.3
7978,122.0
7979,124.2
7983,100.8
7986,85.6
7987,189.7
7988,121.4
7989,167.9
7990,84.3
7992,96.5
7994,92.2
7995,126.5
7996,142.2
7997,158.5
8000,194.0
8004,108.9
8007,121.4
8010,115.6
8011,186.9
8012,114.2
8014,120.5
8017,207.6
8018,149.9
8019,116.2
8021,93.6
8022,89.9
8024,88.3
8027,195.4
8030,203.6
8031,164.7
8032,108.5
8033,171.2
8037,177.8
8039,201.7
8041,207.1
8043,183.1
8044,98.2
8045,190.6
8046,105.8
8047,149.6
8048,137.7
8049,122.2
8050,177.5
8052,186.5
8054,180.9
8055,158.2
8056,134.2
8059,176.7
8061,155.8
8062,136.9
8063,193.5
8064,160.3
8066,149.9
8069,126.5
8071,193.6
8078,98.5
8079,163.0
8080,119.3
8081,111.1
8082,181.1
8083,114.7
8089,135.4
8090,117.9
8091,133.6
8092,141.5
8093,126.5
8094,185.3
8095,83.2
8097,179.0
8098,110.1
8099,180.4
8103,174.3
8104,135.5
8105,116.2
8107,118.8
8110,82.8
8113,136.2
8114,201.9
8116,159.7
8119,118.8
8125,142.4
8126,178.6
8129,145.8
8131,108.5
8133,107.1
8134,95.5
8135,155.7
8136,144.8
8138,138.9
8139,199.2
8143,103.4
8144,158.2
8149,171.4
8150,99.1
8151,137.1
8152,93.6
8154,131.2
8156,139.4
8161,152.7
8165,176.6
8167,172.4
8168,123.9
8170,97.8
8171,187.9
8172,123.1
8173,127.9
8176,171.7
8177,119.6
8181,103.4
8182,101.3
8184,186.8
8186,109.5
8188,119.0
8189,128.9
8192,209.0
8193,128.5
8194,118.8
8199,151.5
8201,161.5
8206,108.5
8208,113.1
8210,112.2
8214,136.3
8215,130.6
8218,116.2
8220,203.1
8221,198.3
8222,119.0
8223,183.3
8226,190.1
8228,172.2
8230,105.9
8231,130.5
8233,174.5
8234,124.9
8238,162.2
8239,126.4
8241,116.8
8243,100.8
8245,90.7
8247,161.5
8249,114.8
8250,201.1
8254,200.8
8256,129.1
8257,94.9
8258,88.3
8260,80.4
8261,81.7
8265,101.0
8267,101.5
8268,121.4
8269,146.8
8270,92.2
8271,153.4
8273,89.3
8275,188.4
8277,117.3
8279,209.8
8281,105.9
8282,109.6
8285,179.2
8287,188.9
8288,166.8
8289,130.3
8292,195.6
8293,126.5
8294,171.7
8297,113.2
8299,153.1
8301,170.2
8303,185.4
8305,113.7
8308,117.4
8309,175.7
8311,96.7
8313,185.3
8314,191.7
8315,149.7
8316,117.5
8318,116.2
8321,162.8
8322,111.4
8325,106.2
8326,201.5
8328,185.5
8331,105.9
8333,135.2
8336,190.9
8340,125.2
8342,201.3
8343,98.2
8344,83.8
8346,174.4
8347,156.1
8348,171.9
8349,104.3
8352,152.5
8354,134.2
8366,104.5
8367,123.9
8369,129.0
8372,139.8
8373,158.0
8374,129.1
8375,134.0
8376,136.6
8378,90.1
8379,98.1
8380,105.9
8381,120.7
8382,131.2
8385,111.3
8387,102.6
8388,203.5
8391,84.2
8392,111.1
8393,183.1
8398,189.0
8399,97.4
8402,170.9
8403,108.6
8404,103.4
8405,159.8
8406,150.7
8407,89.4
8409,208.5
8410,174.3
8411,206.4
8412,152.0
8413,195.8
8414,143.5
8416,160.2
8417,121.4
8418,82.1
8420,141.7
8422,138.8
8426,89.4
8427,99.5
8428,119.6
8429,111.1
8434,185.9
8436,95.6
8437,118.2
8438,160.2
8439,107.5
8441,103.4
8443,181.0
8445,125.6
8446,139.5
8448,190.7
8449,198.0
8450,136.5
8452,119.9
8454,192.9
8455,134.2
8457,129.0
8458,86.8
8459,151.4
8460,112.0
8462,177.7
8464,129.3
8465,88.6
8466,156.0
8467,121.4
8468,177.6
8469,175.6
8470,163.6
8473,196.2
8477,162.4
8478,126.3
8479,108.5
8480,178.5
8481,163.1
8488,143.2
8490,137.0
8492,123.9
8494,190.6
8496,114.2
8500,92.0
8501,159.0
8503,83.4
8504,116.2
8506,200.5
8508,205.9
8510,199.5
8512,151.2
8517,126.5
8519,80.3
8520,103.3
8523,184.2
8524,124.6
8525,174.7
8529,113.7
8530,207.2
8534,188.1
8536,181.6
8539,115.2
8540,117.5
8542,100.8
8543,168.8
8544,193.8
8545,131.9
8548,98.3
8551,149.3
8552,149.7
8554,134.2
8557,154.4
8558,119.1
8559,178.2
8561,204.4
8562,88.6
8563,200.3
8564,115.9
8565,175.1
8566,126.5
8569,170.4
8571,128.6
8574,142.7
8578,155.4
8580,108.5
8583,105.7
8585,126.5
8588,94.9
8590,170.6
8591,156.5
8592,123.9
8597,148.4
8598,140.7
8600,187.1
8603,107.8
8604,105.9
8608,97.4
8611,169.5
8612,117.6
8614,155.8
8616,116.2
8618,117.1
8619,137.3
8622,164.6
8623,135.2
8627,146.8
8629,103.4
8632,86.7
8634,148.7
8635,128.6
8637,86.7
8639,93.0
8640,170.6
8641,100.8
8642,142.5
8645,111.6
8646,120.6
8651,155.7
8652,122.2
8653,202.0
8654,134.2
8656,112.5
8662,136.3
8665,149.5
8666,102.2
8667,126.5
8668,93.5
8669,184.0
8671,143.2
8675,151.3
8678,151.3
8679,103.4
8686,92.7
8687,160.0
8691,118.8
8693,132.7
8695,148.2
8697,135.0
8699,96.8
8704,118.8
8705,178.9
8706,189.1
8707,132.9
8709,151.2
8710,188.9
8711,98.6
8714,135.6
8717,123.9
8718,155.2
8719,105.7
8721,200.2
8723,173.8
8724,128.4
8727,114.2
8728,171.9
8729,116.2
8730,105.5
8731,132.6
8734,86.9
8735,105.4
8737,104.1
8741,100.8
8745,145.3
8751,193.7
8753,207.0
8754,134.2
8757,169.9
8758,123.6
8761,170.4
8762,167.8
8766,121.4
8772,199.0
8773,98.0
8775,117.5
8776,92.4
8777,117.6
8779,105.9
8782,99.9
8784,132.5
8786,142.5
8787,93.4
8790,89.8
8791,121.6
8792,123.9
8793,156.5
8795,98.4
8796,92.4
8800,191.8
8802,135.2
8804,113.7
8808,112.5
8809,190.3
8810,147.5
8812,96.7
8813,190.9
8814,116.1
8816,113.7
8818,84.1
8821,121.5
8823,193.0
8825,156.3
8827,103.9
8828,103.4
8829,102.9
8831,128.4
8834,98.2
8835,83.6
8837,204.9
8839,176.1
8841,95.6
8842,178.5
8844,190.5
8848,94.8
8850,107.0
8851,149.4
8853,131.7
8855,107.2
8857,154.9
8859,105.0
8860,163.4
8861,127.3
8862,147.2
8863,204.2
8865,126.5
8868,95.2
8869,107.9
8872,111.6
8873,157.7
8874,123.6
8875,191.8
8878,113.7
8881,168.3
8882,123.3
8884,108.2
8885,104.1
8889,132.0
8890,116.2
8891,180.4
8893,118.7
8895,137.6
8896,183.1
8897,102.5
8898,155.9
8899,135.9
8901,105.1
8902,100.8
8904,102.6
8905,87.1
8909,185.3
8912,203.6
8913,112.2
8915,121.4
8923,177.5
8924,162.8
8925,141.6
8927,197.6
8928,116.2
8931,186.7
8934,116.0
8938,154.5
8940,105.9
8942,162.8
8944,126.9
8945,160.8
8946,187.9
8952,139.4
8960,126.3
8961,188.5
8962,92.0
8965,121.4
8972,169.5
8973,209.6
8975,207.6
8976,132.6
8978,103.4
8981,185.8
8986,153.2
8987,88.6
8988,143.4
8990,116.2
8992,196.6
8993,204.9
8995,128.1
8997,112.0
8998,163.1
9000,87.9
9001,199.1
9003,111.1
9006,134.1
9007,93.7
9009,141.5
9010,209.0
9012,108.5
9013,132.6
9014,155.6
9015,118.8
9017,128.2
9019,117.5
9021,137.4
9022,209.0
9023,115.2
9025,179.4
9026,136.5
9027,108.5
9028,121.3
9029,110.3
9034,107.1
9039,103.4
9040,155.5
9043,169.6
9044,200.4
9045,96.5
9047,162.4
9048,179.6
9050,151.7
9051,124.1
9053,136.8
9055,112.5
9056,117.7
9057,194.1
9059,171.9
9061,208.7
9065,126.5
9072,144.2
9073,157.0
9077,113.7
9078,118.7
9079,124.0
9080,90.6
9083,163.3
9084,192.2
9087,170.7
9088,134.4
9089,105.5
9090,126.5
9091,161.3
9092,201.1
9094,122.1
9095,107.6
9096,165.7
9102,113.7
9103,133.4
9104,122.7
9105,177.4
9109,112.0
9112,155.1
9115,121.4
9120,133.7
9121,93.2
9123,175.0
9124,99.1
9125,153.5
9126,156.7
9127,108.5
9128,110.7
9129,159.1
9130,195.6
9131,151.0
9132,165.4
9139,134.0
9140,100.8
9145,126.1
9149,109.2
9150,203.0
9152,139.4
9153,90.8
9159,131.2
9160,181.6
9162,165.3
9163,170.3
9164,123.9
9169,91.5
9170,111.8
9171,144.6
9173,107.1
9174,97.0
9178,103.4
9183,87.7
9184,169.8
9185,180.8
9186,180.5
9188,202.6
9189,115.6
9190,118.8
9192,159.8
9193,185.9
9194,204.7
9197,197.5
9198,82.5
9199,196.5
9201,130.3
9202,108.5
9203,115.8
9206,107.0
9209,97.1
9213,95.9
9214,116.2
9217,117.1
9218,181.9
9220,157.0
9222,118.7
9223,180.5
9227,108.5
9230,131.6
9234,122.0
9235,116.1
9236,98.7
9237,155.2
9239,95.6
9240,188.1
9241,101.4
9242,189.5
9243,118.5
9244,177.6
9249,106.7
9251,126.5
9256,186.1
9257,157.7
9258,139.8
9259,177.2
9261,156.1
9264,116.2
9265,184.8
9269,162.0
9270,119.1
9271,108.0
9273,186.7
9276,103.4
9277,114.1
9278,190.0
9279,90.4
9280,166.8
9282,103.6
9283,133.8
9284,198.4
9286,173.4
9288,108.5
9292,153.7
9293,91.5
9294,133.3
9299,208.6
9300,103.4
9302,83.3
9304,168.7
9305,151.6
9307,108.4
9312,108.7
9314,123.9
9315,94.4
9316,93.6
9317,130.7
9318,102.1
9320,182.1
9324,154.3
9325,94.8
9326,111.1
9329,180.9
9332,112.1
9334,158.2
9335,175.1
9336,84.4
9338,95.6
9339,178.1
9340,105.3
9341,110.1
9342,206.4
9346,108.0
9350,123.9
9351,199.3
9353,134.5
9354,142.7
9358,184.0
9359,204.4
9360,115.6
9362,129.1
9363,183.3
9364,116.6
9366,187.3
9369,150.9
9370,169.9
9372,91.5
9374,118.8
9379,88.1
9385,89.3
9387,136.4
9388,111.1
9390,158.1
9394,84.9
9395,209.2
9398,198.1
9399,91.8
9400,98.2
9403,132.1
9404,206.8
9406,155.2
9408,172.3
9410,166.2
9411,131.7
9412,90.8
9413,83.2
9414,190.3
9415,165.3
9417,200.0
9419,196.2
9420,85.0
9422,148.9
9423,123.9
9432,188.0
9433,134.2
9434,134.2
9435,95.5
9436,108.5
9438,199.1
9441,209.9
9442,177.2
9443,89.4
9445,160.7
9446,85.1
9447,118.0
9448,95.9
9449,121.4
9453,189.9
9456,106.1
9457,145.3
9459,176.6
9460,122.8
9461,108.5
9464,152.0
9465,195.5
9467,209.5
9468,107.2
9470,105.7
9471,135.3
9472,170.4
9474,111.1
9478,153.5
9481,167.3
9484,143.1
9486,103.4
9487,202.1
9488,156.9
9489,106.7
9490,150.7
9491,87.6
9494,122.1
9498,98.2
9499,142.5
9500,191.2
9502,194.9
9506,182.8
9507,95.1
9510,134.2
9512,194.0
9515,181.7
9516,92.7
9517,168.6
9518,200.4
9521,186.2
9523,123.9
9526,209.5
9527,119.4
9528,140.3
9529,192.8
9530,101.0
9532,201.3
9534,152.2
9535,111.1
9536,165.2
9540,117.6
9543,95.5
9547,108.5
9549,189.2
9551,139.7
9555,162.2
9557,121.2
9558,198.1
9559,201.4
9560,98.2
9564,89.8
9567,200.8
9569,107.7
9571,131.7
9573,136.7
9577,190.4
9578,127.9
9581,129.5
9582,191.8
9583,104.4
9584,123.9
9585,89.3
9587,152.0
9591,205.3
9592,84.9
9596,103.4
9597,162.8
9598,119.2
9599,206.2
9600,165.5
9602,129.3
9606,181.7
9608,209.8
9609,121.4
9614,102.0
9615,163.4
9618,95.5
9620,116.9
9621,113.7
9622,86.2
9624,172.3
9625,90.7
9628,123.6
9630,123.1
9631,133.4
9633,105.9
9640,166.2
9642,205.6
9647,103.4
9650,104.1
9651,88.6
9652,151.2
9654,185.8
9656,123.8
9658,209.8
9659,95.6
9665,102.8
9668,165.3
9669,176.1
9670,126.5
9676,196.1
9677,80.3
9680,162.3
9681,116.8
9682,116.2
9683,173.7
9684,88.5
9685,172.0
9686,155.9
9687,157.6
9688,159.8
9689,147.7
9690,198.9
9692,126.7
9695,98.2
9698,130.8
9699,116.7
9700,154.1
9705,203.5
9706,103.4
9707,108.7
9712,87.6
9714,128.0
9715,156.8
9716,161.7
9717,175.0
9718,136.2
9719,98.2
9720,125.2
9721,166.2
9724,132.2
9727,127.5
9731,129.1
9733,181.2
9735,118.5
9736,98.9
9737,208.8
9738,138.3
9740,174.2
9741,139.2
9742,130.7
9743,121.4
9744,97.3
9750,164.9
9752,132.7
9755,100.8
9761,83.4
9764,129.8
9766,81.0
9767,118.8
9768,82.9
9769,85.6
9770,118.2
9772,209.9
9774,199.7
9775,94.5
9777,108.9
9779,208.3
9781,108.5
9782,129.1
9786,164.3
9787,204.9
9789,191.9
9791,113.9
9792,182.4
9793,118.8
9794,146.6
9795,181.1
9796,93.3
9797,80.7
9798,205.9
9799,207.5
9801,133.5
9803,150.4
9805,111.1
9808,87.7
9810,115.4
9811,206.4
9812,178.8
9814,143.2
9815,149.7
9816,81.0
9817,133.0
9818,95.6
9820,105.0
9823,173.6
9825,95.8
9826,193.1
9828,165.7
9829,129.1
9832,98.2
9833,98.6
9834,99.3
9839,102.7
9840,100.2
9841,118.8
9842,81.7
9845,116.1
9846,122.5
9848,100.2
9853,105.0
9854,105.9
9855,210.0
9857,156.8
9859,118.6
9861,80.2
9864,92.0
9865,174.4
9866,152.1
9867,116.2
9869,138.8
9872,184.3
9875,109.7
9876,195.7
9877,93.2
9878,95.0
9879,105.9
9884,112.0
9885,166.7
9886,187.4
9888,202.9
9889,120.9
9891,118.8
9892,121.4
9893,181.4
9899,137.6
9901,98.9
9904,105.9
9905,179.6
9909,149.0
9910,97.1
9911,187.3
9914,182.9
9916,136.8
9917,95.6
9918,95.3
9920,171.0
9921,166.4
9925,204.3
9928,131.7
9930,152.3
9933,85.3
9934,178.7
9936,148.1
9939,83.8
9940,121.4
9941,200.5
9942,82.2
9944,89.5
9945,196.3
9946,93.3
9947,117.4
9950,192.7
9953,113.7
9957,202.6
9958,111.5
9959,90.0
9960,123.3
9964,178.7
9965,108.5
9966,182.3
9967,146.4
9969,197.8
9971,200.9
9972,114.1
9975,141.0
9976,133.3
9977,139.0
9978,93.1
9979,175.3
9980,161.7
9981,151.6
9982,102.8
9985,163.4
9986,167.6
9987,200.4
9988,109.0
9989,130.1
9990,126.5
9992,178.3
9993,144.7
9994,198.7
9999,163.5
10000,205.8
10002,116.2
10003,167.6
10004,109.6
10007,152.6
10009,180.5
10010,166.8
10012,92.7
10015,98.2
10016,187.1
10017,160.7
10018,197.6
10021,137.8
10022,201.1
10023,197.5
10024,186.9
10028,123.9
10031,132.3
10033,154.8
10035,121.5
10037,123.2
10040,122.0
10041,116.2
10042,124.8
10044,144.1
10045,128.4
10050,154.4
10051,170.7
10052,82.7
10053,178.7
10054,104.3
10055,95.6
10056,196.3
10062,80.1
10067,126.5
10079,134.5
10080,205.4
10081,121.4
10082,153.6
10083,86.3
10086,118.7
10087,196.2
10088,147.6
10089,184.1
10090,135.8
10091,129.0
10092,174.6
10094,95.6
10095,130.5
10096,134.6
10098,111.3
10099,138.8
10100,115.5
10102,137.7
10104,85.6
10106,118.8
10108,131.9
10109,98.7
10110,133.9
10111,200.4
10113,134.4
10114,152.8
10115,118.8
10117,196.9
10118,87.6
10121,123.9
10122,126.5
10124,162.6
10125,146.6
10129,105.3
10130,174.0
10134,111.1
10137,160.1
10139,100.9
10140,159.7
10141,131.7
10143,115.0
10144,139.8
10145,188.9
10147,134.2
10148,191.8
10150,103.4
10155,184.4
10156,185.5
10157,149.1
10158,167.8
10159,111.3
10161,123.9
10162,98.3
10165,112.6
10166,107.6
10171,146.6
10174,98.2
10176,179.7
10177,115.6
10178,139.1
10179,96.4
10181,94.4
10182,123.0
10183,112.1
10186,193.5
10187,123.9
10188,158.0
10189,122.6
10194,123.9
10195,139.6
10196,190.0
10198,156.0
10200,83.7
10201,121.4
10206,102.6
10209,144.9
10210,185.2
10212,81.9
10214,98.2
10216,116.1
10218,128.0
10219,88.0
10220,209.6
10221,107.7
10222,165.4
10224,160.7
10226,123.9
10228,123.9
10230,158.0
10233,126.6
10237,201.0
10238,190.3
10240,116.2
10241,121.9
10242,149.9
10245,185.4
10248,148.3
10249,109.4
10250,116.3
10251,198.5
10254,95.6
10255,98.2
10259,136.6
10260,103.9
10264,194.6
10265,160.2
10266,113.7
10268,91.8
10272,100.5
10274,143.1
10277,203.7
10279,116.2
10280,158.0
10281,187.8
10285,83.4
10286,91.3
10288,140.3
10291,200.6
10293,103.4
10294,103.0
10295,95.5
10299,169.0
10300,156.7
10302,197.0
10303,129.7
10305,107.3
10306,126.5
10310,191.6
10311,188.4
10317,131.5
10318,208.2
10319,186.5
10320,116.2
10321,177.7
10322,206.3
10324,95.7
10325,110.0
10333,100.4
10334,103.4
10335,85.9
10339,149.1
10341,201.9
10342,126.6
10344,104.0
10345,85.9
10346,92.4
10347,131.7
10349,156.1
10350,93.8
10351,111.1
10356,111.7
10358,128.6
10360,121.4
10362,109.3
10369,158.5
10372,91.0
10374,98.2
10375,88.0
10378,87.6
10382,82.8
10383,172.1
10385,164.2
10386,135.9
10387,126.5
10388,129.0
10390,103.9
10391,124.3
10393,173.0
10395,168.0
10396,171.0
10399,88.3
10400,116.2
10403,176.2
10404,126.0
10406,158.0
10407,80.3
10410,138.4
10411,209.7
10412,185.5
10414,95.6
10416,98.5
10418,80.1
10420,183.2
10422,124.7
10423,184.5
10424,108.2
10425,176.6
10426,123.9
10427,90.8
10431,130.1
10434,161.6
10439,113.7
10440,140.5
10441,181.6
10443,179.9
10444,117.0
10447,129.0
10448,137.3
10450,117.4
10451,111.9
10452,81.7
10453,176.2
10454,100.8
10455,159.9
10456,202.8
10458,125.9
10459,168.1
10460,170.9
10462,93.6
10467,126.5
10468,90.4
10470,138.7
10477,144.9
10479,206.0
10480,116.2
10481,172.5
10483,124.2
10486,124.8
10493,95.6
10494,165.6
10495,164.3
10497,178.8
10499,88.7
10502,83.4
10504,154.8
10506,129.1
10507,152.0
10508,186.8
10512,164.2
10513,142.0
10514,87.1
10515,166.1
10516,183.6
10517,161.2
10519,100.3
10520,118.8
10522,112.0
10524,167.8
10527,130.8
10528,161.4
10530,168.4
10531,137.4
10532,130.2
10533,95.6
10536,187.4
10537,162.2
10538,106.6
10540,112.0
10541,99.7
10542,168.9
10544,96.0
10545,126.2
10546,118.8
10550,100.2
10551,193.0
10554,129.2
10555,162.6
10556,173.7
10558,164.1
10559,121.4
10560,127.8
10561,108.7
10562,144.7
10565,90.8
10567,190.0
10568,158.8
10570,105.0
10572,105.9
10573,85.2
10577,202.1
10578,111.8
10580,187.9
10581,180.5
10582,111.9
10583,177.8
10584,153.4
10586,170.6
10587,131.7
10590,193.6
10598,171.4
10600,116.2
10601,89.5
10602,98.6
10603,136.9
10604,157.9
10605,161.4
10609,190.7
10613,93.1
10619,129.4
10620,107.1
10622,206.2
10623,178.1
10624,149.6
10625,113.5
10626,123.9
10627,143.8
10628,152.0
10629,184.2
10631,144.6
10633,124.5
10636,89.3
10639,116.2
10640,208.1
10642,196.4
10643,199.5
10644,98.1
10645,92.3
10646,181.3
10647,166.7
10648,83.9
10649,130.4
10650,125.9
10651,171.0
10652,131.1
10653,95.6
10657,103.9
10661,137.9
10663,183.1
10665,121.4
10666,108.6
10668,195.4
10669,88.3
10670,98.8
10674,103.8
10677,116.4
10679,108.5
10680,202.6
10684,108.7
10689,185.0
10692,87.9
10693,112.4
10694,203.5
10695,127.5
10697,131.0
10703,200.9
10704,113.7
10705,130.2
10706,141.0
10707,133.4
10709,148.8
10713,146.5
10715,156.5
10716,100.8
10717,116.2
10719,118.8
10724,184.3
10725,117.4
10726,127.8
10727,95.6
10729,119.9
10731,161.3
10732,98.2
10734,120.9
10735,204.6
10736,155.2
10740,206.2
10741,134.4
10742,129.8
10743,200.7
10744,118.8
10745,191.6
10748,98.6
10749,167.4
10753,192.6
10755,179.6
10758,116.2
10759,177.6
10761,193.9
10763,172.4
10766,103.3
10767,202.8
10768,176.2
10771,100.8
10773,171.3
10774,159.8
10775,156.0
10778,108.0
10780,169.0
10781,115.0
10783,98.0
10785,134.2
10790,97.0
10795,94.3
10797,136.8
10798,181.7
10799,118.8
10800,128.3
10802,80.6
10804,99.2
10807,105.5
10809,196.1
10811,140.0
10812,95.6
10814,207.9
10817,169.6
10818,191.1
10820,166.9
10821,170.9
10822,117.3
10824,118.8
10826,124.8
10827,144.1
10831,153.7
10834,191.5
10838,116.2
10839,97.8
10843,95.1
10845,147.6
10849,170.8
10852,100.8
10853,86.8
10856,83.1
10860,109.9
10865,129.1
10867,159.4
10868,97.4
10869,118.0
10870,152.2
10871,189.3
10872,202.7
10873,203.2
10876,180.6
10878,111.1
10882,105.1
10885,163.9
10886,194.5
10887,170.1
10889,200.4
10890,170.8
10891,115.1
10892,90.5
10893,88.3
10894,199.9
10895,143.5
10898,179.6
10899,137.9
10900,131.4
10901,132.9
10903,108.6
10904,118.8
10909,98.3
10912,192.2
10914,207.3
10915,147.6
10916,106.1
10918,116.2
10919,94.7
10920,208.5
10922,194.8
10923,187.3
10925,83.5
10926,203.4
10930,86.4
10932,100.8
10934,195.5
10936,167.9
10939,118.0
10943,199.4
10945,131.7
10947,96.4
10948,186.2
10954,180.5
10958,116.2
10961,193.1
10962,106.5
10963,209.1
10964,107.6
10965,190.4
10966,167.8
10967,129.5
10972,93.1
10977,203.1
10978,146.2
10981,202.0
10983,169.9
10985,123.9
10986,158.7
10987,144.8
10989,176.2
10993,91.2
10994,106.9
10995,81.1
10997,123.6
10998,118.8
11000,168.0
11002,158.9
11003,117.2
11004,136.5
11009,199.1
11010,97.3
11012,98.2
11015,153.1
11017,128.2
11020,134.5
11022,153.9
11023,188.4
11024,126.5
11025,94.8
11026,104.4
11030,114.0
11031,128.0
11034,192.7
11035,198.1
11037,113.7
11038,201.0
11039,128.6
11040,187.2
11041,206.0
11044,193.7
11050,90.1
11052,95.6
11054,196.9
11055,117.9
11056,94.3
11057,124.8
11059,197.0
11063,173.0
11064,121.4
11068,196.3
11070,163.5
11072,150.3
11074,86.3
11077,121.4
11081,203.7
11082,175.4
11083,155.0
11086,178.5
11088,175.6
11089,117.2
11090,98.2
11093,162.9
11095,88.0
11096,88.0
11097,111.5
11099,125.3
11100,130.0
11103,116.2
11105,146.2
11106,89.9
11107,107.8
11108,122.9
11115,147.9
11116,165.1
11117,111.1
11118,115.7
11119,163.9
11120,142.1
11121,139.6
11125,125.8
11129,86.5
11130,95.6
11133,85.5
11137,163.1
11142,93.4
11143,116.2
11147,132.4
11148,201.1
11153,129.6
11156,121.4
11158,138.2
11163,143.3
11166,186.0
11168,151.4
11169,103.4
11173,84.7
11176,205.1
11177,159.1
11181,100.1
11182,140.1
11184,121.4
11185,198.5
11189,93.4
11190,196.7
11191,148.5
11192,152.6
11193,171.4
11194,142.9
11195,93.4
11196,92.1
11197,113.7
11199,127.6
11200,200.6
11203,135.2
11204,183.8
11205,207.1
11208,94.7
11210,100.8
11211,153.9
11216,141.1
11218,188.1
11221,137.0
11222,155.3
11223,172.7
11224,131.7
11225,106.3
11226,105.9
11227,133.8
11228,141.9
11230,85.4
11231,121.7
11232,83.7
11234,206.1
11237,116.2
11239,149.7
11240,128.7
11241,113.2
11244,163.7
11245,88.7
11246,125.2
11249,122.5
11251,93.1
11255,171.7
11257,150.9
11260,112.1
11262,203.7
11264,123.9
11266,208.4
11268,155.2
11270,157.1
11272,178.9
11274,101.2
11277,118.8
11279,100.7
11280,132.0
11282,98.5
11283,140.9
11286,181.0
11287,142.7
11288,152.7
11289,88.6
11290,100.8
11291,122.9
11293,185.9
11294,200.8
11295,135.6
11298,143.0
11303,126.5
11309,193.0
11310,80.6
11318,116.2
11320,193.7
11321,106.3
11322,99.7
11324,147.0
11328,106.6
11331,95.6
11333,197.1
11336,140.1
11339,142.3
11341,130.0
11342,157.0
11343,129.1
11346,185.4
11349,108.9
11350,121.2
11351,162.9
11352,185.4
11353,172.3
11356,101.4
11357,121.4
11358,96.4
11360,147.3
11361,202.6
11362,135.4
11363,205.9
11364,80.6
11366,150.8
11368,186.4
11369,202.4
11370,103.4
11371,81.0
11373,199.1
11382,200.1
11384,129.1
11385,96.3
11388,173.9
11389,81.0
11392,139.4
11395,187.7
11396,152.2
11398,113.7
11399,173.0
11401,101.7
11402,142.9
11407,141.8
11408,139.3
11410,177.1
11411,93.1
11418,178.2
11419,95.7
11423,123.9
11425,178.8
11426,118.0
11427,121.5
11428,170.1
11429,142.5
11431,145.5
11433,130.7
11435,80.1
11436,158.3
11437,123.9
11439,81.1
11441,198.0
11445,99.0
11447,86.2
11448,98.4
11450,191.5
11451,100.8
11457,98.3
11459,118.4
11461,117.7
11464,129.1
11465,108.2
11467,168.1
11471,86.7
11473,176.1
11474,142.8
11475,186.8
11476,166.1
11477,208.1
11478,111.1
11483,92.2
11486,160.5
11487,200.6
11488,172.5
11491,95.6
11494,135.5
11495,95.6
11497,155.4
11498,162.0
11500,94.1
11503,126.5
11504,127.4
11506,159.3
11507,125.5
11508,131.8
11509,180.1
11510,132.9
11513,85.3
11517,113.7
11519,159.2
11520,168.6
11521,148.1
11531,93.1
11536,110.5
11538,117.4
11539,114.6
11540,82.3
11541,172.7
11542,99.8
11543,121.4
11547,201.7
11548,189.2
11549,202.8
11550,208.2
11552,129.4
11554,172.6
11556,111.1
11557,105.5
11558,139.7
11559,106.0
11562,170.3
11568,96.5
11570,98.2
11571,91.5
11573,89.9
11576,113.6
11577,207.9
11580,171.4
11582,139.6
11583,129.1
11586,127.0
11589,117.0
11592,167.3
11593,134.8
11596,116.2
11597,179.1
11599,123.5
11601,182.5
11602,156.3
11603,90.7
11604,202.8
11606,84.8
11607,171.3
11610,93.1
11611,85.7
11613,131.6
11614,187.7
11615,99.7
11616,81.2
11617,145.5
11618,97.5
11621,125.3
11622,121.4
11624,154.3
11627,107.2
11630,114.0
11631,140.9
11635,113.7
11639,123.7
11640,139.2
11641,152.3
11642,191.0
11643,108.7
11644,117.6
11645,145.1
11646,106.9
11648,144.0
11649,91.6
11650,95.6
11651,104.3
11658,116.9
11659,132.4
11660,154.1
11662,118.8
11666,186.4
11667,130.0
11670,206.1
11675,111.1
11676,172.4
11677,200.1
11678,208.0
11680,130.4
11685,116.9
11688,93.1
11692,188.1
11694,185.6
11695,83.0
11699,107.0
11700,202.5
11701,118.8
11703,203.5
11704,170.0
11705,186.2
11706,133.0
11709,127.4
11711,181.2
11712,98.5
11713,131.1
11715,116.2
11716,123.3
11718,191.6
11719,157.0
11721,101.6
11722,173.7
11723,167.1
11726,117.7
11728,95.6
11730,85.1
11731,84.5
11736,194.5
11737,167.8
11738,98.4
11741,111.1
11742,151.0
11744,166.3
11747,91.2
11750,166.7
11751,129.0
11754,113.7
11755,82.3
11756,91.2
11758,83.1
11759,179.5
11761,116.4
11762,187.1
11763,144.4
11766,94.9
11767,98.2
11768,204.1
11770,106.4
11771,87.4
11772,163.8
11773,174.3
11777,208.5
11778,121.6
11781,116.2
11782,134.7
11784,165.2
11785,108.2
11787,157.8
11788,179.1
11790,196.6
11791,185.5
11792,91.6
11794,113.7
11800,87.6
11801,173.9
11804,156.6
11805,148.4
11806,157.4
11807,98.2
11809,110.5
11810,151.9
11820,103.4
11822,147.7
11823,174.5
11828,185.2
11830,120.3
11831,187.1
11832,205.7
11833,105.9
11836,102.6
11841,163.7
11842,203.3
11843,123.7
11847,98.2
11848,203.7
11856,88.4
11858,150.7
11859,105.9
11860,202.6
11862,178.3
11867,161.2
11868,86.6
11872,176.1
11873,103.4
11874,86.4
11879,114.1
11880,108.7
11881,137.7
11886,95.6
11887,135.2
11888,111.5
11889,134.3
11890,102.2
11892,199.1
11895,83.2
11896,182.6
11897,90.7
11898,95.6
11899,208.1
11901,167.7
11903,135.8
11905,88.7
11906,190.9
11907,192.5
11908,154.4
11912,90.5
11915,181.4
11917,196.2
11920,207.6
11922,180.0
11923,190.1
11924,113.7
11926,193.3
11927,198.5
11928,108.6
11931,209.2
11932,192.2
11933,91.5
11935,207.3
11936,168.5
11937,95.6
11939,203.1
11940,167.7
11941,176.4
11942,81.1
11946,159.7
11947,144.6
11948,106.4
11950,85.4
11954,138.2
11955,145.5
11956,207.2
11957,92.3
11958,156.0
11959,96.2
11960,120.1
11961,166.7
11962,116.2
11968,158.8
11970,141.7
11971,133.1
11975,192.3
11976,105.9
11980,164.2
11983,178.5
11984,93.5
11985,185.6
11987,135.5
11989,169.7
11990,82.8
11991,92.8
11992,144.4
11993,131.8
11994,196.7
11997,165.6
11999,150.6
12000,204.6
12002,118.8
12003,133.2
12004,110.7
12005,150.8
12008,197.8
12012,166.7
12013,83.2
12014,174.7
12015,105.9
12019,131.5
12021,180.9
12025,163.2
12027,139.8
12028,85.4
12030,132.2
12031,157.0
12033,103.9
12036,136.2
12042,118.8
12044,137.7
12046,188.0
12049,146.9
12051,154.1
12052,169.4
12055,105.9
12056,138.2
12059,131.6
12061,203.4
12062,208.6
12065,122.2
12068,87.9
12070,104.3
12071,199.2
12073,158.3
12076,196.0
12081,121.4
12082,149.9
12083,159.2
12087,140.3
12088,155.5
12094,113.7
12096,111.4
12098,121.3
12100,149.6
12102,97.6
12105,124.4
12108,90.5
12109,142.0
12112,140.4
12113,136.4
12117,206.7
12118,188.7
12121,121.4
12126,129.4
12127,83.2
12131,189.0
12134,118.8
12135,198.6
12140,128.0
12141,176.5
12142,83.2
12146,83.8
12147,98.2
12148,89.4
12149,172.4
12151,201.6
12152,96.2
12154,137.3
12157,196.0
12158,181.5
12159,122.9
12160,126.5
12161,151.7
12163,104.5
12167,89.1
12169,187.0
12171,156.7
12172,203.4
12174,116.2
12175,125.8
12177,131.5
12178,184.2
12180,149.5
12181,137.4
12183,164.3
12184,189.4
12187,95.6
12189,120.1
12191,135.7
12196,87.3
12198,164.7
12199,123.9
12203,180.6
12206,80.6
12207,158.5
12208,114.0
12213,116.2
12214,157.3
12215,163.0
12216,148.0
12219,138.1
12221,188.6
12222,143.9
12226,98.2
12227,163.1
12232,209.0
12233,161.4
12237,163.5
12239,116.2
12240,180.6
12241,156.7
12243,82.3
12244,93.2
12245,194.0
12247,124.2
12248,81.7
12249,163.7
12250,130.9
12252,161.3
12253,113.7
12259,144.1
12263,102.2
12264,178.1
12266,98.2
12267,83.0
12269,166.0
12270,158.1
12274,99.4
12275,103.6
12277,109.5
12278,113.7
12279,104.6
12284,158.6
12286,186.7
12287,162.4
12288,82.0
12289,101.9
12292,116.2
12293,85.4
12294,181.7
12295,144.8
12297,105.4
12298,202.3
12299,185.6
12300,182.1
12301,197.6
12306,100.8
12307,164.7
12314,135.1
12315,113.7
12317,184.6
12319,118.8
12322,138.7
12323,111.1
12324,202.9
12326,175.5
12328,117.5
12333,111.1
12335,83.2
12337,185.2
12343,144.3
12344,181.6
12346,95.6
12348,92.0
12350,163.5
12351,116.0
12352,130.8
12354,166.2
12356,157.7
12358,116.2
12360,197.2
12363,168.2
12365,198.1
12366,113.2
12367,173.6
12368,150.6
12369,144.1
12371,107.1
12372,118.8
12375,164.0
12377,112.9
12379,128.4
12381,113.1
12383,174.2
12385,116.5
12386,100.8
12387,165.2
12389,196.5
12391,206.8
12392,166.1
12395,134.4
12398,200.6
12399,118.8
12402,146.8
12404,166.6
12406,193.4
12408,145.9
12411,182.3
12412,116.2
12416,153.0
12417,191.3
12419,166.0
12420,200.5
12421,165.1
12424,202.8
12425,161.9
12426,95.6
12427,191.1
12433,188.2
12436,108.1
12439,116.2
12440,207.2
12441,187.9
12443,147.3
12445,111.2
12447,83.8
12448,166.2
12449,139.9
12451,127.4
12452,118.8
12453,141.2
12458,200.2
12459,197.1
12460,117.8
12464,100.7
12465,194.9
12466,100.8
12469,133.1
12470,184.5
12471,152.9
12473,165.4
12474,164.3
12475,119.1
12477,193.3
12478,174.7
12479,123.9
12480,209.6
12481,169.8
12482,192.6
12483,84.1
12486,83.1
12487,174.1
12488,119.7
12489,184.0
12491,127.0
12492,118.8
12496,173.7
12497,157.5
12498,149.2
12500,132.1
12507,98.2
12508,101.5
12509,187.0
12510,86.6
12511,105.6
12512,102.4
12517,208.2
12518,158.5
12519,121.4
12522,105.5
12524,85.9
12527,140.8
12528,109.5
12530,176.0
12532,113.7
12533,197.9
12535,189.8
12537,156.7
12539,115.1
12541,182.5
12542,124.9
12546,100.8
12549,161.8
12550,169.1
12551,111.4
12552,200.3
12553,88.2
12555,97.9
12557,152.7
12559,129.1
12562,125.7
12566,126.1
12571,168.0
12573,113.7
12574,169.6
12579,162.7
12581,119.0
12586,124.7
12587,93.1
12588,165.5
12589,204.7
12594,92.2
12595,107.3
12599,121.4
12602,109.5
12605,88.4
12607,198.2
12609,157.6
12610,180.3
12612,111.1
12616,169.3
12617,169.0
12618,187.2
12619,177.6
12621,160.7
12622,188.2
12623,123.0
12624,90.2
12625,95.6
12628,173.8
12629,197.7
12630,94.5
12631,111.1
12637,125.8
12639,121.4
12640,83.8
12643,209.2
12644,101.7
12645,126.5
12646,195.0
12647,186.2
12648,99.4
12649,136.4
12650,167.8
12652,113.7
12655,197.8
12656,184.8
12658,124.7
12659,169.9
12664,148.1
12665,90.5
12666,144.5
12669,148.7
12672,152.0
12676,168.0
12677,125.3
12678,113.7
12679,124.5
12680,90.4
12681,162.1
12684,136.1
12685,85.3
12686,158.5
12689,198.2
12691,118.8
12693,90.5
12694,110.2
12695,92.2
12696,142.0
12702,197.2
12705,100.8
12706,119.6
12707,187.7
12708,120.6
12714,169.0
12716,169.5
12717,170.8
12718,200.1
12719,129.1
12720,134.3
12723,141.6
12724,150.7
12725,94.0
12729,139.2
12730,112.2
12731,112.5
12732,113.7
12733,92.4
12736,189.6
12737,190.0
12740,166.8
12741,188.0
12742,128.7
12744,135.0
12745,93.1
12747,173.8
12749,193.0
12750,101.7
12751,135.3
12753,194.8
12754,102.6
12755,135.2
12756,146.8
12757,148.3
12758,121.4
12759,146.5
12760,181.9
12763,137.5
12766,100.8
12768,156.6
12769,201.3
12771,135.1
12772,118.8
12775,110.4
12776,158.5
12777,136.1
12780,82.6
12781,189.7
12782,200.0
12783,157.7
12785,95.6
12786,203.5
12787,136.7
12792,144.2
12795,87.7
12796,123.6
12797,118.8
12798,172.6
12801,173.7
12808,186.8
12810,150.2
12811,111.1
12812,199.3
12813,96.3
12814,168.0
12815,174.1
12818,137.3
12819,168.0
12820,93.0
12821,102.5
12822,178.9
12823,116.5
12824,93.1
12826,109.8
12827,180.8
12829,199.6
12831,149.0
12836,113.7
12844,85.0
12845,145.3
12846,190.5
12849,91.8
12851,116.2
12852,117.9
12853,99.8
12854,98.9
12855,159.0
12856,111.5
12858,118.7
12859,86.0
12862,168.3
12863,151.9
12864,95.6
12867,182.1
12868,110.9
12869,112.0
12870,97.2
12871,127.0
12873,128.2
12874,129.2
12876,113.7
12877,104.0
12879,159.3
12881,94.3
12884,123.1
12886,156.8
12887,177.3
12890,116.2
12892,161.7
12893,105.2
12899,91.1
12900,190.6
12903,103.4
12905,106.4
12907,118.9
12911,136.7
12914,160.0
12916,109.3
12917,126.5
12923,183.4
12924,195.3
12926,169.1
12930,191.2
12931,118.8
12933,166.4
12934,156.1
12939,142.9
12940,168.2
12941,93.9
12943,82.1
12944,95.6
12946,99.1
12949,156.0
12951,203.3
12953,201.7
12954,158.6
12956,116.2
12957,130.7
12958,181.7
12960,124.2
12961,88.4
12966,138.7
12967,191.4
12969,116.2
12974,146.2
12979,189.4
12980,98.4
12981,159.9
12983,176.7
12984,103.4
12986,175.1
12988,143.6
12992,186.6
12995,100.2
12996,92.7
12997,129.1
12998,151.5
12999,131.6
13004,197.0
13007,182.3
13010,116.2
13011,137.5
13012,168.3
13013,136.6
13015,142.9
13016,180.5
13017,126.7
13020,153.4
13022,168.7
13023,143.4
13024,93.1
13027,137.5
13030,118.0
13033,190.6
13035,176.3
13036,118.8
13039,189.3
13041,90.5
13043,192.2
13044,87.3
13045,115.6
13046,86.6
13049,185.2
13050,121.4
13052,103.1
13057,97.0
13061,164.0
13064,100.8
13065,176.5
13066,147.7
13068,152.9
13071,152.1
13074,84.4
13077,126.5
13078,107.7
13085,202.2
13088,162.9
13090,118.8
13092,194.5
13094,102.1
13101,121.1
13102,132.0
13103,179.0
13105,100.8
13106,86.1
13108,164.3
13109,86.2
13110,81.1
13113,181.5
13114,182.5
13115,115.5
13118,131.7
13120,169.0
13121,139.7
13123,125.2
13127,161.3
13128,149.7
13130,174.1
13131,123.9
13133,111.2
13136,135.1
13140,145.6
13141,85.8
13142,195.5
13143,187.9
13145,98.2
13146,166.5
13150,138.0
13152,89.3
13154,193.3
13156,120.8
13157,126.5
13161,111.7
13163,116.5
13164,87.8
13165,150.9
13167,100.8
13168,80.4
13169,110.6
13171,113.7
13173,165.5
13174,102.0
13176,183.5
13177,102.6
13178,180.2
13179,176.2
13182,169.1
13185,93.1
13187,90.0
13188,177.8
13189,130.3
13190,95.8
13191,181.4
13197,129.1
13200,133.4
13201,134.0
13203,81.2
13206,149.9
13210,113.7
13215,168.0
13216,168.4
13217,164.3
13219,171.2
13221,208.7
13223,93.1
13224,176.0
13226,158.0
13228,140.6
13230,146.3
13231,171.8
13233,164.2
13234,135.7
13236,118.8
13238,103.9
13240,85.6
13246,126.0
13247,90.5
13250,111.1
13253,170.8
13254,93.0
13255,86.5
13256,141.6
13257,81.1
13262,94.8
13263,95.6
13264,111.4
13265,152.9
13266,193.3
13269,83.6
13274,165.0
13276,123.9
13278,149.3
13280,158.9
13282,93.5
13285,108.2
13289,113.7
13290,80.8
13291,128.3
13292,179.4
13293,194.7
13294,155.9
13295,90.5
13296,114.4
13298,163.5
13301,127.0
13302,93.1
13305,201.5
13306,134.6
13307,141.4
13308,160.2
13309,124.7
13310,130.6
13313,94.9
13316,116.2
13317,104.2
13318,135.6
13320,90.2
13321,137.1
13325,175.5
13326,185.4
13329,118.8
13330,169.5
13331,167.8
13334,145.1
13336,177.5
13342,103.4
13345,190.0
13347,111.3
13349,126.1
13350,93.9
13356,126.5
13361,176.5
13362,179.4
13364,129.6
13369,113.7
13370,180.9
13371,150.7
13372,202.2
13375,128.4
13376,144.3
13378,139.6
13382,105.4
13383,95.6
13388,190.0
13389,148.2
13390,177.2
13391,187.0
13392,86.0
13393,174.8
13395,121.4
13399,108.3
13400,165.2
13405,173.3
13407,204.2
13409,113.7
13410,166.7
13411,205.0
13417,119.3
13418,182.4
13419,195.1
13422,93.1
13424,102.9
13425,135.2
13427,174.6
13428,80.1
13430,203.7
13434,113.7
13435,94.4
13440,184.7
13441,134.1
13447,92.6
13449,108.5
13450,118.8
13452,161.4
13454,93.3
13455,104.1
13456,146.5
13458,94.7
13459,131.6
13462,93.1
13463,149.1
13466,134.8
13468,195.3
13469,134.0
13471,142.3
13474,113.7
13485,189.4
13488,116.2
13489,130.5
13490,129.0
13491,207.0
13493,130.4
13496,146.4
13497,142.8
13499,82.8
13501,95.6
13504,129.1
13505,152.6
13509,205.0
13510,80.4
13514,108.5
13520,116.2
13521,108.6
13522,168.8
13523,199.7
13525,109.6
13526,174.8
13528,113.7
13529,169.7
13530,90.2
13532,124.8
13533,206.8
13534,177.1
13536,98.8
13537,204.1
13540,208.4
13541,103.4
13542,157.2
13545,166.0
13546,101.8
13547,201.6
13548,129.8
13549,157.8
13550,116.4
13554,126.5
13556,85.7
13562,114.3
13563,129.0
13564,201.8
13565,98.9
13566,92.2
13568,121.4
13570,150.6
13574,102.1
13575,146.8
13576,116.5
13578,96.1
13580,105.0
13581,91.4
13582,98.2
13586,94.8
13589,170.5
13591,180.4
13592,203.0
13594,116.2
13599,164.8
13600,190.2
13604,142.5
13605,168.0
13606,148.4
13607,121.4
13611,174.8
13613,188.7
13614,147.7
13617,112.8
13618,155.0
13621,100.8
13624,196.3
13625,155.6
13634,118.8
13641,138.3
13642,158.0
13644,121.0
13645,200.9
13647,97.5
13648,105.9
13649,143.7
13650,94.3
13651,151.0
13652,133.2
13654,123.6
13655,134.3
13656,147.2
13662,87.9
13666,92.3
13667,160.6
13669,166.2
13670,209.3
13671,195.9
13672,81.2
13674,111.1
13678,90.0
13679,107.5
13680,184.1
13687,113.7
13688,191.0
13690,192.5
13691,120.7
13692,192.0
13694,92.3
13695,133.0
13696,187.8
13697,101.9
13698,139.9
13701,93.1
13706,204.2
13707,188.3
13709,138.3
13710,103.1
13711,192.7
13713,133.9
13714,111.1
13716,134.4
13717,119.7
13719,133.4
13720,143.4
13722,152.9
13724,89.2
13725,154.6
13727,108.5
13729,195.9
13731,148.3
13735,169.7
13736,156.7
13737,155.5
13741,98.2
13742,156.1
13743,131.0
13744,207.1
13746,101.7
13747,86.2
13750,179.3
13752,163.6
13753,118.8
13754,81.7
13755,90.0
13757,208.8
13759,125.2
13760,183.4
13761,170.4
13765,94.9
13766,113.7
13767,108.8
13772,207.9
13774,105.3
13775,199.7
13777,184.3
13780,100.8
13782,111.5
13784,141.1
13787,191.9
13790,122.8
13791,155.2
13793,178.1
13794,116.2
13795,85.9
13798,169.6
13799,188.5
13802,111.5
13805,167.4
13806,158.2
13807,113.7
13808,177.5
13809,128.3
13812,180.9
13814,145.5
13815,124.4
13820,95.6
13821,134.7
13824,205.8
13827,192.8
13828,168.4
13830,199.2
13831,151.3
13833,116.2
13835,188.0
13839,99.9
13842,190.6
13843,209.9
13844,108.3
13845,162.2
13847,111.1
13848,98.9
13850,121.9
13851,204.9
13854,124.5
13856,136.9
13857,115.4
13859,188.4
13860,90.5
13862,171.1
13863,104.0
13865,152.5
13868,194.2
13869,161.8
13870,189.6
13871,197.4
13873,105.9
13876,188.1
13881,188.2
13882,192.8
13884,196.7
13885,197.6
13886,111.1
13889,93.8
13892,171.4
13895,103.7
13896,104.4
13898,185.4
13899,100.8
13900,95.8
13901,150.5
13903,110.3
13904,157.8
13906,126.5
13909,92.7
13914,118.8
13917,107.0
13918,180.4
13919,112.7
13920,110.4
13924,120.8
13927,111.1
13929,108.3
13930,86.9
13936,111.5
13937,196.3
13940,90.5
13941,184.1
13944,157.7
13945,147.8
13947,175.8
13949,180.8
13950,160.8
13952,164.6
13953,111.1
13954,135.7
13955,166.0
13957,127.1
13960,182.5
13965,150.0
13966,118.8
13967,97.6
13968,116.1
13969,174.8
13972,153.1
13973,177.4
13974,158.7
13979,102.9
13980,105.9
13981,94.0
13982,142.8
13984,180.9
13986,104.5
13990,164.6
13991,178.9
13993,129.1
13994,92.1
13997,132.1
14000,88.4
14005,194.1
14006,108.1
14007,121.4
14008,160.8
14010,105.0
14012,135.7
14013,83.7
14018,170.0
14020,98.2
14022,95.7
14023,165.4
14027,171.9
14031,206.7
14032,123.9
14034,171.8
14037,103.4
14039,97.2
14040,102.3
14041,102.2
14047,121.4
14049,190.6
14051,115.1
14052,169.5
14053,148.3
14054,182.9
14057,173.8
14059,185.4
14060,100.8
14061,88.0
14069,167.6
14070,111.9
14073,123.9
14075,175.4
14077,136.4
14082,120.1
14084,81.9
14085,195.9
14086,93.0
14087,113.7
14089,182.8
14090,117.7
14094,101.9
14095,178.9
14097,151.9
14098,190.9
14100,95.6
14102,100.2
14104,208.1
14105,84.0
14109,170.1
14110,111.8
14111,188.8
14112,127.8
14113,126.5
14115,170.7
14118,120.0
14121,133.5
14122,171.2
14125,201.9
14127,118.8
14128,95.3
14131,175.7
14132,135.4
14133,88.5
14135,123.7
14140,93.1
14141,208.7
14142,81.0
14143,184.4
14145,117.1
14146,120.2
14147,125.7
14148,160.7
14149,160.6
14150,88.4
14152,118.8
14153,105.0
14154,85.1
14156,120.4
14161,162.7
14162,119.0
14164,122.2
14166,111.1
14167,92.1
14169,162.3
14170,87.3
14171,198.2
14172,103.3
14173,191.8
14177,166.8
14179,186.8
14180,98.2
14181,89.2
14182,163.6
14183,121.4
14184,121.5
14186,114.7
14187,177.4
14188,157.2
14189,102.8
14190,162.4
14191,102.7
14192,126.5
14193,142.4
14197,172.4
14199,136.3
14202,166.3
14205,118.8
14206,209.9
14207,158.0
14208,180.8
14209,154.1
14210,110.4
14212,149.8
14214,92.1
14216,112.5
14217,188.5
14218,161.3
14219,95.6
14220,150.4
14221,178.1
14222,159.1
14223,82.1
14224,160.7
14225,110.0
14226,183.2
14229,96.5
14230,165.0
14231,111.1
14235,191.6
14237,118.2
14241,129.2
14243,167.5
14245,113.7
14246,146.6
14249,104.4
14250,133.3
14252,106.2
14253,119.0
14254,147.3
14255,158.6
14256,203.8
14257,113.5
14259,100.8
14263,141.4
14265,93.3
14266,204.4
14267,148.5
14269,136.7
14270,159.6
14272,118.8
14273,175.1
14275,146.0
14277,180.9
14280,127.1
14283,117.4
14285,111.1
14287,117.0
14289,174.6
14290,103.0
14292,202.7
14293,202.8
14294,152.1
14295,124.7
14296,138.5
14299,90.5
14300,106.5
14301,186.8
14305,82.8
14307,192.1
14309,101.2
14310,178.7
14312,113.7
14314,152.7
14323,197.4
14325,113.7
14326,148.0
14329,160.8
14332,128.5
14333,115.4
14334,208.1
14338,142.3
14339,98.2
14344,162.1
14348,81.1
14351,113.7
14354,154.0
14357,184.9
14361,158.7
14362,204.8
14364,105.9
14365,116.8
14366,107.2
14367,158.1
14368,189.1
14369,141.1
14378,122.7
14379,93.1
14380,113.6
14381,96.2
14385,151.4
14386,106.2
14387,84.9
14390,156.9
14391,105.9
14392,156.5
14393,115.6
14395,151.6
14397,203.4
14399,107.6
14400,115.7
14401,117.0
14404,116.2
14405,174.9
14407,163.9
14408,166.7
14409,147.1
14411,136.4
14417,100.8
14418,138.5
14422,150.1
14424,155.3
14425,139.4
14427,133.1
14429,93.8
14431,116.2
14432,171.0
14433,191.2
14436,82.9
14440,192.2
14443,191.2
14444,156.0
14445,113.7
14447,91.1
14452,113.9
14455,137.2
14456,90.7
14457,83.4
14458,98.2
14459,178.6
14463,183.8
14465,113.9
14466,203.7
14467,173.1
14469,202.9
14470,93.3
14471,116.2
14476,131.0
14477,187.8
14479,134.4
14480,174.6
14481,80.0
14482,124.0
14484,116.2
14489,150.6
14495,145.7
14496,202.7
14497,95.6
14498,169.2
14499,130.0
14500,166.1
14506,113.9
14508,195.3
14510,168.8
14511,108.5
14513,106.6
14514,170.3
14516,206.1
14520,127.8
14522,195.4
14524,113.7
14525,207.8
14528,154.8
14529,122.6
14531,194.8
14533,209.0
14534,116.2
14537,103.4
14538,178.7
14540,82.2
14542,123.6
14543,133.2
14544,191.4
14545,155.0
14546,203.3
14548,143.0
14549,120.4
14551,121.4
14554,97.6
14555,172.6
14558,197.2
14560,197.2
14563,183.4
14564,113.7
14568,136.5
14570,141.3
14573,171.4
14574,156.4
14576,196.9
14578,93.1
14579,184.2
14589,96.2
14590,111.1
14591,204.7
14593,189.8
14596,123.0
14603,207.4
14604,108.5
14608,168.7
14610,111.3
14612,122.1
14613,171.7
14616,143.8
14617,98.2
14620,176.8
14621,178.2
14626,193.7
14627,119.1
14628,209.1
14629,108.5
14631,89.3
14632,133.5
14633,178.3
14634,147.2
14637,117.4
14639,111.8
14640,177.3
14643,191.7
14644,108.5
14646,192.9
14647,167.3
14649,105.5
14650,146.6
14654,108.7
14655,173.6
14656,91.0
14657,95.6
14658,180.1
14660,190.5
14662,98.4
14663,151.4
14668,129.1
14669,100.8
14670,123.4
14672,205.7
14675,159.4
14679,107.1
14680,178.7
14683,108.5
14684,163.6
14686,145.5
14689,128.0
14691,197.9
14692,197.5
14693,143.7
14694,125.5
14696,100.8
14698,128.9
14700,141.7
14702,195.9
14703,130.3
14710,111.1
14711,133.9
14713,86.7
14714,105.3
14721,134.9
14723,113.0
14724,108.5
14725,168.4
14726,107.5
14729,157.4
14730,132.4
14731,181.5
14732,129.1
14735,176.0
14736,111.8
14737,100.8
14738,93.6
14739,89.4
14741,205.2
14744,105.5
14746,128.2
14748,168.4
14749,91.5
14750,123.9
14751,172.8
14752,176.6
14755,86.2
14756,194.8
14758,189.0
14760,195.2
14763,119.2
14764,121.4
14765,192.6
14767,139.9
14772,195.2
14773,102.5
14774,133.8
14778,95.6
14780,97.7
14785,111.9
14788,131.0
14789,150.0
14790,113.7
14792,170.6
14796,146.2
14800,197.2
14801,152.1
14803,111.1
14806,195.2
14809,143.5
14811,144.5
14817,93.1
14819,181.9
14827,205.6
14828,191.6
14829,113.7
14830,159.7
14836,168.9
14839,164.5
14840,202.3
14842,189.1
14843,113.7
14850,172.7
14852,98.0
14854,126.0
14857,98.2
14858,104.7
14861,177.5
14863,182.3
14864,194.2
14868,193.0
14869,105.9
14870,205.1
14871,181.9
14874,141.9
14877,140.5
14879,152.5
14882,108.5
14883,116.6
14886,114.5
14887,99.5
14888,204.6
14892,142.4
14894,140.7
14896,100.8
14898,90.5
14899,157.6
14900,125.6
14904,118.7
14908,89.9
14909,178.1
14910,121.4
14913,179.6
14914,164.7
14917,107.0
14918,160.9
14919,87.6
14923,111.1
14924,84.2
14927,173.3
14928,154.2
14930,116.1
14932,84.4
14934,133.2
14936,131.8
14937,90.5
14939,174.4
14941,99.5
14942,176.8
14944,173.9
14945,124.6
14949,113.7
14951,148.3
14955,204.6
14956,123.4
14957,165.4
14958,127.5
14959,124.5
14962,116.2
14966,103.4
14967,106.0
14968,168.0
14970,202.4
14971,135.9
14973,84.1
14976,168.9
14977,103.4
14980,199.0
14982,179.1
14983,192.0
14985,84.8
14990,126.5
14991,140.6
14992,191.2
14994,154.2
14996,90.2
14997,87.8
14998,111.9
14999,120.0
15001,208.6
15002,166.5
15003,116.2
15004,187.2
15005,90.1
15006,158.0
15007,179.5
15008,145.2
15010,156.9
15013,131.9
15016,95.6
15019,120.9
15022,90.4
15024,151.2
15025,168.8
15028,121.4
15029,118.8
15033,108.0
15037,205.0
15039,182.4
15040,116.0
15041,135.4
15042,120.6
15043,113.7
15046,119.8
15050,138.3
15051,200.0
15053,146.4
15054,179.3
15056,95.6
15058,133.1
15059,143.3
15060,80.0
15061,173.7
15067,175.3
15069,113.7
15070,133.5
15071,167.3
15072,191.6
15076,188.4
15079,151.2
15080,99.1
15081,159.8
15082,108.5
15084,176.2
15085,172.6
15086,128.0
15087,124.6
15088,158.1
15092,128.7
15093,148.5
15095,90.5
15096,160.4
15099,115.9
15101,101.3
15102,110.2
15103,110.1
15107,174.9
15109,108.5
15110,154.7
15116,104.2
15118,135.0
15120,117.2
15122,111.1
15123,82.3
15128,116.2
15129,142.6
15131,111.5
15135,95.6
15136,149.6
15139,102.7
15140,100.2
15145,112.9
15146,126.1
15147,108.1
15148,103.4
15149,91.5
15150,130.5
15155,84.2
15161,103.4
15163,143.0
15166,138.6
15169,111.7
15170,151.7
15175,95.6
15176,188.9
15177,112.9
15178,175.3
15179,145.0
15181,101.8
15182,139.2
15185,192.4
15187,103.4
15188,187.6
15190,80.3
15191,122.6
15193,114.1
15195,93.4
15196,200.9
15198,177.0
15201,108.5
15202,167.4
15205,199.1
15206,109.4
15214,98.2
15216,145.6
15218,163.9
15219,189.0
15220,209.0
15221,149.8
15226,95.6
15227,177.2
15228,171.0
15229,191.7
15230,133.8
15231,200.3
15233,192.4
15235,142.3
15237,92.4
15238,91.7
15240,85.4
15241,106.5
15242,127.6
15243,145.7
15244,104.4
15245,98.4
15246,146.8
15247,105.4
15250,197.1
15252,108.5
15254,206.2
15256,180.4
15259,149.5
15261,90.2
15265,93.1
15269,107.3
15270,160.9
15272,148.5
15273,149.9
15274,162.9
15277,170.2
15278,85.4
15279,143.6
15281,158.3
15287,124.7
15290,113.7
15293,160.9
15294,160.6
15295,185.1
15296,147.9
15298,171.8
15304,98.2
15306,168.1
15307,206.6
15308,199.2
15309,206.2
15312,152.0
15315,128.8
15316,85.4
15317,126.9
15318,147.4
15321,195.3
15322,192.5
15323,129.0
15329,116.2
15330,124.9
15339,160.7
15340,108.0
15341,106.7
15342,111.1
15348,191.0
15349,156.4
15351,120.4
15353,179.1
15354,154.4
15355,87.9
15357,151.2
15358,173.1
15360,85.3
15369,113.7
15372,87.2
15375,105.5
15376,149.3
15378,186.5
15381,192.6
15382,108.5
15386,104.6
15388,96.5
15390,158.9
15394,186.1
15395,90.5
15399,120.5
15400,100.4
15404,169.6
15405,193.9
15407,154.7
15408,113.7
15409,176.8
15410,111.5
15412,179.2
15417,86.8
15418,156.4
15420,200.1
15421,113.7
15424,102.5
15426,147.0
15434,100.1
15435,93.1
15436,197.6
15437,118.4
15441,208.7
15444,118.4
15446,132.2
15448,108.5
15449,105.6
15450,90.9
15451,194.7
15452,126.3
15461,105.9
15462,105.5
15463,87.0
15466,88.2
15467,109.0
15468,104.7
15469,185.1
15470,118.6
15471,138.5
15472,149.3
15473,167.3
15474,93.1
15476,93.0
15480,86.2
15481,210.0
15482,176.3
15486,108.5
15487,126.9
15491,151.4
15493,166.3
15494,120.7
15497,139.4
15499,176.4
15500,172.0
15501,103.4
15503,110.9
15505,184.0
15507,122.3
15508,195.2
15509,95.6
15511,152.6
15513,206.6
15514,90.5
15516,157.7
15517,92.8
15518,132.9
15521,159.8
15524,197.6
15525,114.7
15526,98.2
15528,99.9
15530,134.2
15535,169.0
15538,201.5
15539,95.6
15542,199.3
15547,184.5
15548,83.0
15549,206.3
15550,199.3
15551,108.5
15552,177.3
15553,207.7
15554,129.5
15559,160.1
15560,82.2
15562,196.4
15563,195.5
15564,93.1
15565,190.5
15566,174.5
15570,162.7
15572,100.8
15575,112.5
15576,184.0
15577,96.1
15578,82.8
15579,149.6
15580,134.3
15582,145.4
15583,96.4
15585,169.3
15586,162.3
15587,144.9
15588,200.6
15589,132.3
15590,111.1
15592,164.5
15593,129.5
15594,160.4
15597,181.3
15598,204.1
15600,84.0
15601,105.2
15603,98.2
15611,115.2
15613,154.5
15614,201.2
15615,91.2
15616,93.1
15618,80.5
15620,124.9
15621,110.0
15622,166.1
15624,162.4
15628,123.9
15629,199.9
15631,203.1
15633,125.7
15635,96.8
15638,97.2
15639,161.5
15641,86.4
15642,111.1
15646,106.2
15652,98.9
15653,86.1
15654,163.9
15655,90.5
15659,140.2
15660,189.9
15661,152.7
15668,118.8
15670,160.0
15677,175.6
15678,113.0
15679,104.9
15680,140.2
15681,108.5
15683,95.9
15686,159.3
15687,91.5
15688,123.5
15689,197.1
15690,185.5
15693,123.1
15694,87.9
15697,209.5
15699,195.0
15700,184.4
15701,83.0
15702,200.9
15703,198.8
15704,203.2
15707,131.9
15708,116.2
15710,184.8
15712,85.7
15714,151.8
15718,102.6
15719,201.6
15721,108.5
15723,103.7
15726,81.7
15731,181.8
15734,85.4
15735,190.1
15736,195.2
15737,114.3
15738,204.1
15741,131.9
15742,207.4
15744,205.6
15747,111.1
15748,85.4
15753,155.3
15755,113.4
15756,90.8
15758,145.3
15759,174.7
15760,111.1
15761,145.7
15763,136.6
15770,205.2
15772,113.7
15773,84.6
15774,93.1
15776,197.1
15780,122.8
15782,189.3
15786,136.1
15787,116.2
15788,97.5
15789,146.9
15790,144.0
15793,146.1
15794,146.4
15796,174.6
15800,105.9
15805,129.5
15807,135.3
15810,207.7
15811,207.0
15813,93.1
15815,161.0
15817,110.9
15818,106.8
15820,165.7
15822,86.8
15823,164.1
15824,195.1
15825,116.2
15826,97.9
15830,156.9
15833,195.0
15835,209.0
15836,183.9
15840,118.8
15842,192.9
15844,152.3
15853,103.4
15854,81.2
15855,116.3
15859,188.0
15866,123.9
15867,116.0
15868,177.9
15870,197.3
15873,90.4
15877,155.1
15878,82.0
15880,113.7
15888,146.2
15890,107.0
15892,95.8
15893,95.6
15894,173.7
15897,113.3
15898,209.3
15899,156.3
15905,208.7
15906,118.8
15913,121.9
15914,112.0
15919,101.9
15920,111.1
15921,173.4
15924,117.7
15927,89.5
15929,172.5
15931,95.9
15932,139.7
15933,90.5
15935,153.2
15940,86.2
15941,127.0
15943,120.0
15945,108.5
15946,96.7
15948,111.1
15951,126.6
15953,92.1
15954,175.6
15955,141.7
15959,108.5
15960,163.1
15961,186.6
15962,123.1
15963,108.7
15964,165.5
15968,131.2
15969,81.0
15973,95.6
15976,152.4
15978,192.4
15979,178.7
15980,132.5
15982,161.5
15983,177.3
15984,133.8
15985,111.1
15988,184.0
15991,129.4
15992,165.9
15995,157.1
15997,101.7
15998,113.7
16003,180.7
16004,202.1
16005,149.5
16006,104.1
16007,195.2
16012,98.2
16013,148.3
16019,101.4
16022,149.7
16024,105.9
16025,80.2
16033,179.3
16034,148.5
16038,113.7
16042,100.1
16044,128.6
16047,85.4
16048,196.8
16050,146.9
16051,135.5
16052,108.5
16053,174.6
16054,168.6
16056,188.1
16058,143.0
16060,133.2
16061,144.4
16063,82.4
16064,203.4
16065,121.4
16066,116.2
16068,184.2
16070,108.4
16071,206.6
16074,175.4
16076,154.7
16077,188.0
16078,116.2
16079,141.7
16080,99.1
16085,110.0
16090,162.7
16092,98.2
16095,90.6
16099,142.1
16100,196.6
16101,168.9
16102,172.2
16103,158.0
16105,111.1
16106,100.6
16107,145.4
16108,160.9
16109,115.7
16110,172.1
16112,205.5
16115,91.3
16116,169.2
16118,116.2
16121,171.7
16122,117.8
16126,148.5
16128,168.9
16130,207.8
16132,100.8
16134,100.3
16136,137.7
16137,178.9
16139,189.1
16141,164.7
16142,182.7
16143,160.4
16145,121.4
16146,135.2
16153,123.5
16155,114.9
16157,132.8
16158,113.7
16159,182.3
16164,89.4
16166,126.6
16167,163.4
16168,120.4
16172,94.5
16173,93.1
16174,132.4
16181,148.8
16185,116.2
16187,135.5
16188,201.6
16189,81.0
16190,185.2
16193,153.5
16195,106.9
16197,175.7
16198,118.8
16200,186.4
16201,87.9
16204,94.3
16207,182.0
16209,188.8
16211,103.4
16212,91.2
16213,175.7
16214,154.8
16217,164.8
16218,100.2
16219,199.9
16222,98.8
16223,148.2
16225,123.9
16227,178.7
16228,182.9
16233,107.9
16237,180.4
16239,113.7
16240,158.0
16243,142.3
16244,133.3
16245,86.3
16250,161.7
16252,98.2
16254,179.6
16256,136.7
16258,170.2
16259,204.1
16262,184.6
16264,193.7
16265,126.5
16269,206.2
16270,115.7
16271,183.2
16275,105.5
16278,123.9
16279,119.0
16280,80.7
16281,189.0
16282,123.4
16283,108.5
16284,177.2
16287,128.7
16290,194.5
16291,100.8
16294,131.9
16295,208.3
16296,143.2
16297,200.7
16301,122.4
16303,115.4
16305,194.5
16306,121.4
16307,124.9
16312,156.2
16314,196.0
16315,85.3
16316,195.8
16318,143.0
16319,113.7
16324,114.8
16325,177.2
16326,208.8
16327,162.3
16331,97.9
16332,90.5
16334,97.7
16335,161.8
16336,177.4
16337,131.4
16339,170.6
16340,183.1
16341,161.1
16345,118.8
16348,88.2
16350,157.9
16353,99.9
16354,149.0
16355,207.6
16357,133.1
16358,108.5
16359,176.1
16361,200.3
16362,100.0
16366,145.2
16370,175.9
16371,102.2
16372,87.9
16373,91.1
16376,194.6
16377,126.5
16379,121.7
16380,195.2
16383,182.0
16384,189.0
16385,111.1
16389,108.3
16391,112.0
16394,82.5
16395,144.6
16396,124.2
16398,113.7
16402,121.6
16404,98.0
16406,198.8
16409,130.2
16411,98.2
16412,134.2
16414,108.3
16423,116.2
16424,159.0
16429,131.7
16430,163.4
16432,114.7
16434,177.3
16436,80.3
16438,111.1
16439,153.0
16440,181.0
16443,82.9
16444,142.5
16451,93.1
16454,124.6
16457,166.6
16460,196.2
16462,170.6
16463,111.1
16464,202.0
16466,158.9
16467,88.4
16469,142.8
16471,128.1
16472,99.9
16473,168.1
16475,116.1
16476,92.5
16477,111.1
16479,119.9
16480,181.5
16482,124.1
16483,167.4
16487,135.8
16489,115.8
16490,100.8
16491,150.4
16492,147.6
16494,167.5
16495,111.8
16499,181.5
16500,123.7
16501,154.1
16502,115.4
16504,121.4
16506,137.8
16507,125.6
16515,181.4
16518,116.2
16520,155.7
16521,84.8
16523,82.4
16526,122.4
16527,174.3
16528,114.2
16530,183.2
16531,95.6
16532,107.3
16535,188.6
16536,108.9
16542,179.6
16543,118.8
16544,149.8
16549,165.4
16552,93.2
16553,191.8
16556,184.1
16557,116.2
16558,102.7
16559,98.3
16560,80.3
16561,155.7
16564,179.8
16567,191.6
16569,87.0
16570,132.6
16571,100.8
16572,203.4
16573,111.3
16575,192.5
16577,125.0
16582,126.8
16583,140.3
16584,123.9
16587,96.2
16589,86.6
16592,86.2
16593,96.0
16598,116.2
16605,123.3
16609,112.8
16611,100.8
16614,139.1
16615,109.7
16616,117.4
16618,204.9
16622,111.3
16623,89.3
16624,131.7
16625,196.3
16627,114.1
16631,149.8
16635,97.4
16636,125.8
16638,118.8
16640,127.5
16641,205.1
16642,123.8
16643,113.1
16645,109.0
16652,95.6
16655,115.1
16656,205.6
16660,162.4
16664,123.9
16665,120.2
16667,131.2
16670,122.7
16671,164.3
16673,140.8
16676,160.5
16677,118.8
16679,120.8
16682,110.9
16685,98.8
16689,127.7
16690,128.5
16691,95.6
16693,151.8
16696,188.4
16699,167.6
16704,123.9
16705,155.7
16706,205.8
16709,124.7
16710,177.1
16711,119.2
16712,143.4
16713,200.6
16714,92.7
16715,133.1
16716,85.8
16717,129.1
16721,182.4
16725,198.3
16726,180.5
16731,103.4
16733,114.1
16734,163.2
16735,181.0
16736,133.4
16737,111.0
16739,176.4
16740,165.2
16741,205.1
16742,119.3
16744,131.7
16746,80.2
16747,82.4
16757,123.9
16759,93.2
16760,132.1
16763,157.1
16769,206.9
16770,162.4
16771,92.5
16772,100.8
16774,174.8
16778,144.1
16780,156.7
16782,173.6
16785,129.1
16792,184.9
16793,170.2
16794,206.6
16796,96.2
16797,125.4
16798,108.5
16800,121.5
16803,124.2
16804,85.4
16806,172.7
16807,144.9
16809,116.8
16810,172.8
16812,95.6
16814,132.3
16816,95.9
16817,83.3
16818,159.1
16820,130.5
16822,82.5
16823,139.8
16824,131.7
16825,160.1
16827,84.1
16829,190.0
16831,178.5
16832,137.0
16835,84.6
16838,118.8
16840,129.8
16846,154.5
16848,164.0
16849,154.7
16850,143.6
16851,103.4
16852,136.2
16853,157.7
16856,202.7
16858,120.6
16860,168.4
16863,131.7
16865,131.7
16866,171.5
16869,94.3
16873,183.8
16874,155.2
16875,181.5
16877,166.4
16878,108.5
16882,180.2
16887,200.0
16891,95.6
16895,135.1
16897,132.2
16901,112.5
16904,209.8
16905,129.1
16906,182.8
16908,143.3
16909,111.2
16910,194.3
16912,183.4
16913,171.4
16914,157.3
16918,108.5
16926,85.9
16929,87.5
16931,105.9
16932,96.7
16934,149.4
16935,107.9
16936,181.3
16938,205.7
16942,110.0
16943,124.9
16945,131.7
16948,93.8
16949,105.2
16950,80.9
16953,115.4
16954,86.1
16956,140.9
16957,191.4
16958,116.2
16964,101.4
16965,162.6
16969,206.8
16972,103.4
16973,109.5
16975,132.7
16976,167.4
16977,109.3
16979,142.4
16980,180.3
16981,153.8
16982,137.4
16983,186.6
16986,126.5
16987,88.1
16992,170.3
16993,147.6
16994,82.9
16995,171.5
16996,191.0
16997,195.9
16999,103.4
17001,81.4
17007,86.7
17010,139.3
17012,95.6
17014,173.7
17017,184.6
17021,180.6
17022,136.8
17025,121.4
17026,127.4
17027,185.8
17028,130.7
17029,83.3
17030,102.6
17031,190.5
17032,103.6
17033,208.9
17035,134.0
17036,196.6
17038,141.2
17039,111.1
17041,156.9
17042,114.4
17046,181.2
17048,88.9
17051,195.2
17052,100.8
17053,192.3
17057,148.0
17058,135.8
17060,155.8
17065,118.8
17070,91.5
17074,96.4
17077,96.7
17079,100.8
17082,105.5
17083,184.3
17085,89.8
17089,161.5
17090,101.6
17092,95.6
17096,192.7
17099,184.7
17101,90.7
17102,94.1
17103,143.6
17104,163.4
17105,118.8
17106,153.8
17107,207.2
17108,189.6
17113,185.3
17114,192.5
17116,131.3
17118,178.6
17119,105.9
17120,121.4
17123,205.3
17127,161.8
17128,115.5
17130,198.9
17131,171.0
17132,93.1
17135,103.5
17139,169.2
17140,121.2
17141,117.2
17143,89.9
17144,118.8
17146,147.7
17149,183.6
17154,169.4
17156,166.5
17157,179.4
17158,95.6
17160,170.5
17161,91.1
17162,129.7
17163,138.5
17165,146.5
17166,82.4
17167,124.0
17171,90.5
17172,87.5
17175,151.8
17176,164.2
17177,150.2
17179,169.7
17181,108.1
17182,188.9
17183,126.5
17186,173.9
17190,146.7
17195,181.4
17197,111.1
17203,149.8
17204,196.7
17206,192.1
17207,202.1
17209,113.8
17210,93.1
17214,167.2
17216,101.6
17217,203.0
17218,113.9
17220,147.9
17222,121.4
17224,105.8
17226,122.1
17229,206.7
17235,196.9
17236,111.1
17237,94.5
17238,137.6
17240,150.4
17242,198.5
17244,81.5
17246,80.2
17247,142.6
17248,181.1
17250,95.6
17252,199.6
17254,140.9
17255,142.8
17257,175.2
17258,81.4
17262,131.7
17263,134.8
17264,166.5
17266,136.6
17268,206.3
17270,110.8
17272,140.5
17273,98.8
17274,158.5
17275,118.8
17277,80.3
17278,134.7
17279,142.8
17282,189.0
17285,162.7
17289,98.2
17290,104.1
17291,92.2
17293,99.1
17295,116.7
17296,148.1
17297,147.1
17298,152.9
17299,165.4
17302,126.5
17303,93.4
17304,130.7
17307,154.7
17309,85.8
17312,195.2
17314,167.3
17315,116.2
17318,130.3
17323,118.7
17329,98.2
17332,122.7
17333,132.1
17334,159.9
17337,140.7
17338,94.2
17340,159.7
17341,126.5
17342,132.2
17345,122.0
17346,197.8
17350,177.9
17351,159.2
17353,82.7
17354,111.1
17358,182.0
17359,112.5
17361,183.7
17362,84.3
17365,153.4
17368,172.3
17369,93.1
17371,143.3
17377,82.0
17378,118.8
17379,123.7
17380,166.1
17381,116.2
17384,94.9
17385,205.0
17389,138.6
17391,86.9
17394,116.2
17398,151.8
17399,175.9
17400,128.6
17402,154.6
17407,104.4
17408,98.2
17413,209.2
17414,98.5
17415,130.9
17416,204.1
17420,121.4
17421,140.1
17422,102.8
17424,204.9
17425,199.9
17426,88.7
17427,112.4
17429,197.2
17430,174.7
17434,113.7
17435,181.5
17438,124.3
17441,102.3
17443,183.5
17445,98.3
17447,95.6
17451,94.7
17452,154.3
17454,200.8
17455,83.3
17457,172.0
17459,139.2
17460,111.1
17461,183.0
17462,146.9
17466,98.4
17469,189.6
17473,123.9
17476,158.5
17477,105.9
17478,209.2
17479,150.9
17480,178.3
17483,187.6
17484,105.0
17485,189.1
17486,105.9
17487,163.0
17490,80.6
17491,127.1
17497,111.1
17498,184.4
17499,190.7
17500,142.4
17501,123.9
17503,123.9
17506,113.0
17508,154.6
17512,180.3
17513,171.8
17514,118.8
17517,95.9
17518,193.9
17519,175.5
17520,119.6
17521,198.0
17522,179.5
17527,98.2
17528,99.6
17530,150.6
17533,104.6
17537,154.3
17539,127.8
17540,118.8
17541,203.7
17542,155.8
17547,142.7
17549,155.2
17551,201.1
17553,121.4
17557,124.1
17561,178.6
17564,158.4
17567,100.8
17569,93.0
17572,200.8
17574,90.6
17576,143.2
17578,83.5
17580,84.2
17581,123.9
17586,133.4
17587,138.7
17588,87.4
17589,154.5
17590,89.6
17593,113.0
17594,116.2
17596,201.3
17598,129.7
17601,122.9
17604,205.2
17605,112.9
17607,95.6
17609,185.2
17612,178.9
17614,162.1
17615,156.8
17617,107.1
17618,138.3
17619,121.4
17620,152.6
17621,95.0
17629,152.5
17631,179.3
17634,121.4
17635,132.5
17636,140.4
17637,166.7
17640,191.5
17641,81.2
17645,116.4
17647,98.2
17651,120.3
17652,202.4
17655,165.3
17658,172.9
17659,116.2
17661,156.3
17662,173.1
17663,167.9
17664,166.9
17665,110.3
17666,90.4
17667,179.1
17669,178.8
17670,85.8
17671,109.4
17673,113.7
17677,114.3
17683,182.9
17685,177.3
17686,95.6
17687,173.9
17688,138.7
17690,198.6
17691,207.9
17692,196.5
17693,114.3
17695,192.9
17696,95.1
17697,80.0
17698,150.6
17699,121.4
17700,196.6
17701,191.6
17702,156.3
17703,171.1
17704,207.8
17705,174.3
17711,108.2
17712,95.2
17713,118.8
17714,92.1
17715,124.8
17716,82.5
17718,124.3
17719,117.6
17720,142.9
17721,139.2
17724,181.3
17725,155.9
17726,103.4
17728,202.1
17729,186.3
17732,173.4
17738,118.9
17739,121.4
17746,142.1
17751,188.2
17752,93.7
17753,113.7
17756,86.7
17757,203.9
17761,154.9
17765,131.0
17766,194.5
17767,98.2
17768,127.1
17771,167.6
17772,125.6
17773,124.4
17775,99.5
17777,153.5
17778,139.3
17779,121.4
17782,101.6
17783,168.8
17784,107.3
17785,145.9
17786,114.9
17787,208.6
17788,83.2
17789,106.4
17790,81.4
17791,146.0
17793,113.7
17795,204.4
17796,129.4
17798,191.6
17799,176.4
17803,81.5
17804,136.4
17806,105.9
17807,174.1
17809,174.8
17811,103.7
17815,192.5
17816,164.5
17817,192.2
17819,129.1
17823,88.8
17825,147.5
17827,201.1
17828,181.6
17831,141.9
17833,118.8
17834,161.2
17835,192.1
17836,194.8
17838,195.7
17843,137.1
17845,128.7
17847,98.2
17852,85.3
17856,165.1
17857,154.0
17859,126.5
17867,196.1
17868,132.8
17871,128.9
17872,116.2
17874,144.6
17875,156.6
17876,194.3
17877,185.0
17878,200.0
17879,89.1
17882,182.1
17883,87.2
17885,136.9
17886,95.6
17887,111.0
17888,126.5
17889,96.9
17890,157.6
17899,118.8
17901,102.4
17902,165.9
17905,84.2
17907,150.2
17909,197.1
17912,123.9
17913,199.1
17917,117.4
17920,101.3
17923,105.0
17924,202.4
17925,111.4
17926,105.9
17927,182.4
17930,108.0
17931,156.6
17932,109.9
17933,116.4
17934,82.9
17935,132.1
17937,172.1
17938,83.6
17939,131.7
17942,190.3
17943,203.2
17946,153.6
17949,206.7
17952,118.8
17953,172.0
17954,168.4
17958,80.3
17959,159.6
17960,165.1
17964,104.8
17965,136.9
17967,98.2
17968,194.4
17969,122.0
17971,98.3
17975,119.7
17978,97.8
17979,123.9
17981,124.7
17983,142.7
17985,188.5
17988,84.3
17989,129.7
17992,121.4
17993,202.2
17994,113.0
17996,195.2
17997,152.2
18000,117.3
18002,142.3
18004,203.1
18005,111.9
18006,98.2
18009,95.1
18015,155.2
18016,177.9
18018,121.4
18021,183.9
18024,181.8
18025,113.3
18028,127.1
18031,205.2
18032,108.5
18033,197.6
18038,148.8
18039,80.8
18041,112.2
18044,137.7
18045,93.1
18047,178.8
18048,119.3
18054,97.2
18055,123.3
18056,83.9
18057,152.4
18058,116.2
18065,206.2
18070,135.2
18071,118.8
18074,148.9
18076,204.9
18078,150.8
18079,83.6
18082,103.5
18084,98.2
18085,109.7
18088,156.7
18092,96.9
18093,95.9
18094,195.4
18097,199.2
18098,111.1
18100,84.4
18102,196.9
18105,160.8
18107,173.2
18108,122.4
18109,132.2
18111,111.1
18123,133.9
18124,98.2
18126,107.2
18127,156.9
18130,155.0
18133,97.1
18135,185.4
18137,113.7
18138,153.6
18139,181.0
18141,100.7
18143,195.1
18144,144.6
18150,111.1
18151,187.4
18152,171.0
18154,112.7
18155,100.5
18160,120.3
18161,127.1
18163,133.1
18164,103.4
18167,154.9
18168,94.7
18169,199.0
18175,155.1
18178,116.2
18180,120.3
18181,94.9
18182,81.1
18183,105.3
18191,116.2
18192,103.8
18193,152.4
18195,80.9
18198,80.6
18199,122.1
18202,171.2
18204,103.4
18207,103.2
18209,143.4
18210,124.0
18212,90.3
18213,202.1
18215,99.1
18216,100.7
18217,129.1
18219,171.4
18230,177.8
18231,90.7
18232,116.2
18234,195.4
18244,126.9
18245,105.9
18246,127.7
18247,115.3
18249,131.8
18255,148.9
18257,160.5
18258,134.2
18261,165.6
18267,170.5
18268,87.2
18272,126.5
18274,195.4
18275,132.8
18281,97.1
18282,140.6
18285,105.9
18291,164.5
18297,82.3
18299,134.2
18300,92.7
18304,102.2
18305,168.5
18306,154.2
18308,112.9
18309,102.2
18311,86.6
18313,116.2
18316,192.8
18326,98.2
18329,131.8
18330,142.6
18333,198.1
18334,124.4
18335,175.5
18338,129.1
18340,201.2
18342,184.7
18343,106.2
18344,154.5
18347,128.4
18349,203.8
18350,98.4
18351,110.9
18352,123.9
18356,152.2
18359,131.7
18361,171.9
18362,81.4
18366,103.4
18369,86.4
18371,91.4
18372,113.8
18374,137.9
18375,157.3
18379,134.2
18381,109.8
18384,132.2
18393,113.7
18394,89.8
18401,176.4
18402,149.1
18404,145.0
18406,100.8
18408,93.0
18414,162.5
18416,80.9
18419,131.7
18426,127.4
18428,173.9
18430,153.5
18432,144.5
18434,113.7
18440,207.6
18442,206.8
18444,167.0
18446,83.6
18447,100.8
18449,96.8
18451,89.6
18452,97.0
18456,95.5
18458,153.1
18460,121.4
18462,151.5
18465,173.7
18467,96.4
18470,109.5
18471,99.4
18472,153.5
18473,103.4
18474,189.4
18475,188.1
18476,154.8
18480,190.6
18481,178.0
18483,156.1
18487,105.9
18488,145.7
18491,157.1
18496,93.4
18497,149.6
18499,201.9
18500,198.1
18501,118.8
18504,198.9
18508,185.4
18509,90.1
18513,189.5
18514,108.5
18517,184.3
18518,164.0
18521,90.8
18524,158.2
18525,206.6
18526,197.5
18528,108.5
18529,140.7
18531,188.0
18533,139.7
18537,170.5
18540,94.4
18541,113.7
18545,182.9
18547,120.3
18548,103.9
18549,153.0
18550,140.8
18551,111.0
18552,133.6
18554,113.7
18555,130.1
18557,125.0
18560,90.4
18565,200.3
18566,110.9
18567,89.1
18569,129.1
18570,119.0
18571,154.8
18572,207.0
18575,182.9
18577,141.1
18578,138.4
18581,178.8
18582,118.8
18583,163.9
18584,172.1
18586,139.9
18588,102.3
18589,177.7
18591,118.6
18593,162.6
18595,129.1
18603,105.7
18607,194.8
18609,129.1
18610,191.8
18611,160.9
18612,140.1
18614,144.4
18615,158.5
18618,192.7
18622,116.2
18623,127.0
18624,94.3
18625,197.5
18626,177.8
18631,190.7
18635,109.0
18636,139.4
18639,147.4
18648,167.9
18650,134.2
18651,85.6
18652,100.4
18654,199.1
18657,86.1
18663,111.1
18664,184.8
18667,115.1
18670,149.4
18671,82.4
18672,118.6
18674,118.1
18676,142.0
18677,155.6
18678,134.4
18683,86.6
18686,84.0
18687,86.5
18689,117.3
18690,129.1
18692,158.2
18693,134.5
18694,126.1
18695,109.6
18696,134.0
18697,117.4
18699,101.8
18700,129.7
18703,181.3
18704,111.1
18705,170.2
18706,98.0
18708,127.6
18709,157.2
18710,200.0
18713,108.7
18714,181.6
18715,110.0
18717,142.0
18718,157.4
18722,91.0
18725,204.5
18726,200.0
18728,161.8
18730,87.6
18731,123.9
18732,93.0
18734,123.2
18736,140.7
18737,94.1
18738,172.4
18739,177.8
18744,105.9
18747,104.0
18748,103.7
18749,120.4
18757,139.4
18759,88.6
18761,143.9
18763,192.6
18765,134.7
18767,206.1
18768,81.7
18771,118.8
18773,81.5
18774,88.6
18779,114.6
18783,199.4
18785,113.7
18788,183.6
18789,108.3
18790,122.9
18793,148.6
18794,175.8
18797,138.3
18798,139.4
18800,119.8
18801,100.5
18804,150.0
18805,111.5
18806,183.2
18807,179.0
18808,179.1
18811,118.8
18813,160.1
18814,169.0
18816,198.5
18817,142.6
18819,142.0
18822,201.5
18825,105.9
18826,207.8
18827,112.4
18828,157.4
18829,182.7
18830,101.6
18832,180.0
18833,101.3
18838,119.2
18839,134.2
18843,174.7
18845,110.7
18850,122.2
18851,85.6
18852,118.8
18853,106.4
18855,158.7
18856,82.1
18862,84.9
18863,206.3
18865,87.2
18866,113.7
18870,119.1
18871,138.9
18873,88.8
18877,189.3
18879,129.1
18880,120.5
18881,98.9
18883,145.4
18884,112.4
18887,175.9
18888,122.2
18891,113.8
18892,118.8
18895,202.0
18896,172.9
18897,116.9
18900,163.4
18904,96.2
18905,160.5
18906,157.8
18907,116.2
18908,174.1
18909,177.5
18910,175.5
18914,137.6
18916,127.3
18918,192.2
18920,123.9
18921,203.0
18922,109.2
18923,105.5
18925,204.3
18927,168.9
18931,132.0
18933,126.5
18934,82.5
18935,121.5
18936,107.6
18940,181.1
18941,156.7
18947,123.9
18950,103.8
18953,208.9
18957,125.1
18959,146.7
18960,116.2
18964,152.5
18965,108.9
18966,139.4
18967,112.3
18969,183.8
18972,146.4
18973,196.0
18974,129.1
18976,112.0
18977,201.5
18979,110.2
18980,124.3
18982,161.8
18983,189.0
18984,107.1
18985,103.5
18987,109.9
18988,131.7
18991,120.3
18992,189.9
18996,99.8
18997,178.6
18998,201.3
19000,82.8
19001,123.9
19002,154.1
19005,128.7
19008,172.9
19009,139.6
19012,87.1
19014,144.5
19016,109.9
19017,85.8
19018,199.1
19019,132.0
19020,96.3
19024,186.8
19025,122.5
19026,186.5
19027,143.4
19028,136.8
19031,91.7
19034,203.1
19036,122.2
19039,191.7
19040,87.0
19042,121.4
19045,156.4
19049,205.6
19050,162.4
19052,170.8
19055,149.7
19056,115.5
19058,99.8
19059,164.2
19061,169.3
19066,118.9
19068,139.4
19074,124.3
19078,119.7
19082,116.2
19083,90.2
19084,160.7
19085,128.3
19086,128.4
19087,91.4
19088,121.7
19091,146.4
19092,185.6
19095,202.4
19096,144.5
19098,180.2
19099,89.8
19100,91.8
19101,112.4
19103,207.0
19104,206.6
19107,124.9
19108,82.8
19109,129.1
19111,173.0
19114,109.0
19116,169.5
19117,159.5
19119,113.0
19121,179.1
19123,108.5
19125,88.9
19128,172.7
19130,141.2
19135,123.3
19136,142.0
19138,144.6
19140,178.3
19142,126.5
19143,203.4
19145,196.2
19146,131.0
19147,183.7
19149,121.4
19152,102.6
19155,146.9
19157,164.4
19159,207.5
19161,133.2
19162,82.3
19163,181.9
19164,105.9
19168,95.6
19170,133.4
19173,189.9
19177,136.8
19178,89.7
19180,167.0
19183,149.7
19185,127.4
19188,203.3
19189,136.2
19190,123.9
19192,121.1
19194,81.2
19195,181.3
19198,139.6
19199,202.1
19200,120.6
19201,117.6
19203,87.1
19204,108.5
19205,158.9
19209,165.7
19210,145.1
19211,126.6
19213,164.8
19214,157.4
19217,134.2
19218,139.9
19225,90.1
19226,104.7
19228,108.1
19231,118.8
19234,205.4
19235,83.1
19236,201.3
19241,85.5
19245,116.2
19248,179.5
19252,84.9
19253,85.7
19257,199.1
19258,134.2
19262,179.5
19266,134.3
19268,92.5
19269,86.5
19271,123.9
19272,108.2
19277,99.3
19279,188.0
19281,148.2
19282,152.4
19283,149.9
19284,126.5
19285,106.9
19288,116.5
19293,206.6
19294,130.8
19295,94.9
19297,202.0
19299,129.1
19302,152.1
19308,94.8
19309,205.7
19310,141.5
19312,129.1
19319,149.6
19323,125.8
19325,131.7
19327,148.6
19333,169.1
19334,201.2
19336,201.0
19339,129.1
19340,85.9
19342,125.6
19343,84.6
19344,156.9
19345,123.4
19352,139.4
19354,132.0
19356,152.4
19359,178.6
19360,129.4
19362,102.9
19363,84.5
19366,136.8
19370,142.3
19371,100.3
19373,143.5
19375,187.1
19378,174.1
19380,118.8
19384,207.9
19388,94.6
19390,166.9
19392,192.4
19393,142.0
19394,138.2
19395,162.2
19397,139.6
19400,125.7
19402,116.8
19403,140.6
19405,109.0
19406,142.0
19413,174.2
19415,181.5
19417,204.7
19418,108.9
19419,179.9
19420,121.4
19427,158.5
19429,203.8
19431,147.7
19432,157.8
19433,161.7
19434,147.1
19435,154.1
19437,93.4
19439,113.2
19440,207.0
19443,159.0
19447,136.8
19448,106.6
19449,140.0
19450,90.3
19452,130.4
19454,114.2
19456,84.6
19457,136.5
19459,148.5
19461,116.2
19462,174.0
19463,138.4
19465,88.9
19468,153.0
19471,179.2
19472,196.1
19473,90.9
19474,147.1
19477,119.6
19478,136.0
19480,125.6
19481,159.0
19482,127.5
19485,132.3
19486,209.6
19487,134.2
19490,112.4
19491,177.6
19492,145.5
19498,199.1
19500,165.3
19502,116.2
19503,107.2
19505,201.2
19507,82.1
19510,84.2
19511,125.4
19515,147.1
19516,188.5
19518,125.0
19520,123.1
19521,182.8
19522,111.2
19523,141.1
19526,142.0
19527,183.3
19528,126.5
19529,82.4
19531,106.0
19536,129.2
19537,169.4
19538,142.5
19539,156.9
19540,100.9
19542,123.9
19543,134.0
19544,128.3
19548,151.2
19551,167.5
19552,81.6
19555,149.7
19556,93.5
19557,114.1
19558,87.5
19560,204.0
19561,204.2
19563,117.7
19564,121.8
19566,165.6
19569,129.1
19570,209.6
19572,118.5
19574,209.0
19577,145.9
19579,176.8
19581,84.7
19582,113.7
19585,153.3
19586,199.4
19587,189.6
19588,153.8
19589,144.5
19590,162.0
19591,110.8
19592,146.3
19595,97.6
19596,136.8
19597,129.1
19598,130.9
19599,81.7
19601,183.8
19602,180.4
19604,112.3
19609,118.8
19613,108.6
19617,167.3
19620,83.6
19621,155.4
19622,121.4
19625,117.8
19626,120.7
19627,160.0
19632,160.4
19634,109.4
19635,82.3
19636,169.9
19637,134.2
19638,172.8
19640,93.8
19642,208.9
19644,153.6
19645,163.7
19647,120.8
19648,115.3
19650,121.4
19652,178.1
19655,99.8
19657,160.5
19658,170.1
19659,126.7
19660,147.8
19661,183.8
19663,121.4
19664,100.4
19665,123.8
19666,138.8
19668,122.5
19670,132.5
19673,80.5
19674,96.6
19675,84.9
19676,109.2
19677,129.1
19678,204.0
19679,85.1
19683,129.7
19687,140.9
19689,190.9
19690,129.1
19691,206.8
19692,93.3
19694,126.7
19698,165.7
19704,136.8
19706,147.4
19707,175.8
19710,187.4
19712,93.3
19713,147.2
19715,161.8
19717,180.4
19718,126.5
19720,145.9
19721,198.1
19722,123.8
19723,133.7
19725,136.1
19727,172.3
19728,184.1
19730,190.5
19731,134.2
19734,108.3
19744,136.8
19748,96.5
19749,148.5
19752,118.2
19754,115.8
19755,162.5
19758,129.1
19760,84.4
19761,152.4
19762,184.0
19764,134.1
19766,122.4
19768,141.6
19769,159.5
19772,152.2
19775,187.8
19776,185.3
19777,191.2
19779,116.6
19780,119.4
19781,81.9
19782,100.8
19784,207.0
19785,144.5
19787,170.2
19789,99.4
19792,149.8
19793,188.7
19795,104.9
19797,89.2
19799,121.4
19801,192.9
19803,110.5
19805,90.0
19806,127.7
19807,109.4
19808,89.6
19809,188.6
19810,94.3
19811,149.3
19812,149.7
19813,170.4
19814,129.4
19816,129.5
19820,156.3
19825,144.5
19827,95.8
19831,114.3
19833,95.8
19834,179.1
19835,167.0
19836,133.1
19838,129.8
19839,83.2
19840,129.1
19841,139.0
19842,181.7
19844,92.0
19848,145.2
19849,188.3
19850,96.1
19851,93.3
19853,157.4
19854,155.4
19855,183.9
19859,96.3
19861,121.0
19863,203.2
19864,204.3
19865,168.0
19866,147.1
19872,98.6
19873,119.5
19874,143.2
19875,152.8
19879,123.9
19880,167.0
19881,107.5
19883,88.2
19884,85.9
19885,114.0
19886,116.5
19888,105.7
19890,89.1
19892,93.5
19894,154.8
19895,202.7
19897,209.9
19898,153.1
19900,93.5
19902,81.3
19907,144.5
19911,207.8
19912,199.8
19917,170.7
19920,123.9
19921,110.1
19923,120.9
19924,95.1
19926,193.6
19927,166.9
19930,120.3
19931,138.6
19933,145.3
19934,149.7
19936,133.8
19937,154.4
19938,115.7
19939,86.2
19942,209.9
19945,130.2
19947,126.5
19950,93.0
19951,165.9
19952,145.4
19955,148.5
19956,89.0
19957,105.7
19959,114.1
19960,184.9
19961,113.7
19962,179.2
19966,130.7
19970,120.9
19971,96.3
19972,179.4
19975,147.1
19979,139.5
19981,166.0
19983,141.4
19988,131.7
19990,114.9
19993,87.1
19998,174.3
19999,83.6
20001,118.8
20006,107.9
20008,209.1
20011,138.5
20012,113.6
20015,136.8
20016,161.6
20019,159.7
20020,206.0
20023,138.5
20025,158.6
20027,109.9
20028,159.1
20029,123.9
20034,172.0
20037,131.1
20038,206.1
20039,159.9
20040,91.6
20042,129.1
20043,186.1
20044,132.6
20047,119.1
20053,80.6
20056,136.8
20058,130.1
20062,109.1
20065,135.5
20067,185.2
20068,125.6
20069,131.7
20070,202.2
20073,171.4
20074,152.3
20075,125.2
20076,200.3
20080,131.6
20082,134.2
20083,91.4
20087,188.7
20088,90.6
20091,209.5
20093,158.3
20096,163.7
20097,129.1
20100,118.4
20101,182.3
20102,101.5
20104,109.4
20105,84.9
20107,201.0
20110,142.0
20112,82.8
20113,116.5
20114,117.8
20117,147.7
20118,140.3
20119,119.0
20121,153.0
20122,180.7
20123,144.5
20125,162.7
20126,186.1
20128,156.8
20129,146.1
20131,147.2
20133,140.7
20134,196.8
20136,129.1
20139,112.0
20141,185.1
20142,83.3
20144,87.0
20145,196.0
20146,183.7
20149,80.5
20150,144.5
20153,89.3
20155,143.2
20156,204.2
20157,192.0
20159,165.0
20164,139.4
20165,120.7
20167,198.0
20168,157.4
20169,185.2
20171,186.1
20174,201.5
20176,137.7
20177,118.8
20178,93.4
20179,201.1
20180,89.6
20181,93.9
20183,171.5
20187,135.0
20189,86.8
20190,84.7
20191,152.2
20197,160.1
20199,102.1
20202,92.1
20203,117.3
20204,147.1
20206,91.2
20208,206.3
20209,126.4
20211,190.4
20212,135.0
20215,116.3
20217,121.4
20220,110.2
20222,166.5
20223,147.5
20225,166.3
20226,175.0
20227,208.0
20229,200.3
20230,128.6
20232,149.7
20234,101.0
20236,153.8
20239,94.2
20241,180.9
20242,83.4
20243,107.4
20244,110.4
20245,136.8
20246,111.7
20248,80.2
20250,201.8
20251,87.2
20252,160.2
20253,183.6
20258,121.4
20260,155.9
20261,130.0
20262,132.5
20264,125.2
20265,173.5
20267,173.3
20268,204.4
20269,159.7
20270,164.2
20271,139.3
20272,152.2
20276,93.5
20277,139.1
20278,205.0
20281,193.0
20283,179.2
20284,170.3
20285,131.7
20289,100.1
20291,145.9
20293,173.3
20295,99.8
20298,199.4
20299,113.7
20300,183.1
20301,185.5
20302,186.9
20307,190.0
20313,142.0
20318,128.9
20319,122.8
20320,166.0
20322,188.6
20325,99.9
20326,126.5
20327,142.3
20328,185.6
20331,151.9
20332,166.3
20337,113.9
20339,121.4
20344,90.2
20345,200.3
20351,111.4
20353,144.5
20357,154.9
20361,182.8
20362,196.3
20367,118.8
20369,142.6
20370,159.2
20371,137.2
20372,84.3
20374,80.8
20377,127.3
20379,163.3
20380,111.1
20381,142.1
20382,109.8
20384,121.5
20386,159.0
20387,95.4
20388,173.2
20390,130.5
20391,124.1
20393,134.2
20395,131.1
20396,185.5
20397,152.4
20398,104.4
20399,194.0
20400,177.5
20402,131.1
20404,132.1
20407,123.9
20409,186.5
20411,149.6
20413,157.5
20414,82.0
20420,131.7
20421,202.0
20422,166.1
20423,161.7
20425,122.6
20427,143.2
20428,190.1
20429,110.0
20433,173.3
20434,131.7
20435,112.6
20438,97.2
20440,170.4
20447,207.7
20448,126.5
20452,174.2
20453,208.1
20455,131.7
20456,177.2
20459,205.4
20461,129.1
20464,127.1
20465,96.4
20467,188.4
20468,164.3
20469,122.8
20472,160.7
20474,129.1
20476,102.6
20477,208.0
20478,80.9
20480,166.7
20481,181.9
20483,183.5
20486,94.4
20488,136.8
20489,180.2
20494,87.2
20496,186.3
20497,135.1
20498,134.0
20502,136.8
20503,190.0
20505,139.8
20506,153.0
20508,182.4
20509,205.8
20511,177.1
20512,161.5
20515,121.4
20521,90.6
20522,203.2
20523,191.2
20524,80.2
20525,167.4
20526,152.3
20527,98.2
20529,142.0
20533,179.3
20534,149.0
20535,119.4
20536,206.3
20538,188.2
20542,142.0
20546,161.2
20548,179.3
20550,169.3
20554,195.7
20555,121.4
20557,172.2
20558,152.9
20560,132.6
20561,96.6
20563,167.6
20564,108.3
20567,88.0
20568,166.5
20569,148.8
20570,149.7
20572,144.2
20573,195.6
20574,207.3
20575,203.3
20577,111.9
20581,208.9
20582,191.3
20583,136.8
20586,202.0
20591,206.0
20594,174.2
20595,89.1
20596,113.7
20597,98.0
20599,208.4
20601,180.4
20602,148.9
20604,97.7
20605,98.2
20608,133.4
20609,177.6
20610,144.5
20611,148.4
20613,207.9
20614,186.9
20617,95.8
20622,130.0
20623,131.7
20625,162.9
20629,161.6
20633,173.3
20634,187.7
20635,100.2
20637,118.8
20641,133.7
20646,179.4
20648,169.7
20651,144.5
20652,136.7
20653,111.0
20655,145.9
20660,121.2
20661,161.3
20662,156.8
20663,133.8
20664,123.9
20667,140.1
20668,115.6
20670,188.8
20674,99.2
20675,181.6
20676,166.6
20677,108.5
20678,172.7
20679,175.4
20680,165.6
20681,207.1
20682,98.2
20686,197.0
20689,99.4
20690,142.0
20691,195.3
20692,184.7
20693,184.7
20696,198.5
20697,102.7
20698,195.4
20703,111.3
20705,126.5
20707,155.8
20708,158.7
20709,161.2
20710,121.7
20711,191.8
20713,201.7
20714,120.7
20716,197.9
20717,133.9
20718,111.1
20721,113.4
20722,119.2
20723,147.6
20724,178.8
20726,112.3
20727,199.8
20731,134.2
20733,161.9
20735,179.7
20738,174.9
20739,136.6
20744,94.7
20745,118.8
20748,206.4
20749,95.1
20751,120.2
20752,206.2
20754,108.7
20759,118.8
20761,135.4
20768,83.2
20770,172.0
20771,83.2
20772,134.2
20779,153.1
20780,142.3
20781,189.3
20784,121.2
20785,125.2
20786,118.8
20787,167.7
20791,181.6
20793,87.3
20795,163.2
20796,130.5
20799,118.8
20805,195.5
20807,181.4
20809,149.0
20810,200.8
20811,86.8
20812,126.5
20819,199.9
20821,155.0
20822,169.5
20826,82.1
20827,123.9
20830,174.9
20831,204.1
20835,204.0
20836,140.8
20837,95.1
20838,103.2
20840,126.5
20842,174.2
20844,131.6
20845,174.2
20849,108.1
20853,118.8
20855,104.7
20857,146.1
20859,89.4
20860,183.5
20861,102.8
20862,121.5
20864,165.5
20865,156.6
20866,203.7
20867,126.5
20868,140.9
20871,109.6
20872,139.2
20873,199.2
20876,154.3
20878,158.2
20880,129.1
20887,126.7
20888,143.6
20890,155.3
20891,179.3
20893,88.8
20894,118.8
20895,205.0
20897,186.1
20900,113.1
20902,138.7
20903,168.7
20904,89.6
20906,142.3
20907,108.2
20908,142.0
20911,130.9
20914,199.9
20915,81.5
20916,172.4
20917,135.3
20919,205.0
20920,131.1
20921,136.8
20922,164.9
20926,192.2
20932,93.5
20933,100.8
20934,116.2
20940,203.2
20942,117.9
20943,190.5
20947,142.0
20948,106.7
20953,84.0
20954,81.9
20955,85.6
20959,131.7
20962,144.5
20963,112.4
20966,176.6
20967,146.1
20968,99.0
20969,205.3
20970,161.7
20972,209.2
20974,152.6
20975,126.5
20976,146.5
20977,109.0
20978,198.2
20982,192.4
20983,183.9
20984,85.1
20985,141.3
20987,173.1
20988,154.8
20991,148.2
20995,90.8
20999,162.8
21000,109.8
21002,134.2
21004,135.5
21005,125.9
21007,199.6
21008,150.8
21012,99.4
21013,80.3
21015,116.2
21017,97.4
21018,88.3
21020,138.4
21021,82.9
21022,118.3
21024,150.8
21025,112.9
21029,144.5
21030,167.5
21031,136.8
21033,173.1
21036,143.7
21043,129.1
21047,170.8
21051,179.1
21052,107.2
21055,131.4
21056,116.2
21060,88.6
21062,161.2
21063,175.0
21069,142.0
21071,126.0
21074,91.9
21076,172.2
21080,82.4
21083,123.9
21084,127.2
21087,90.5
21088,146.7
21091,160.4
21095,169.5
21096,179.9
21097,105.9
21098,172.3
21100,96.7
21101,194.0
21103,107.0
21108,86.2
21110,134.2
21111,107.3
21118,81.4
21120,138.7
21124,116.2
21130,96.8
21137,116.2
21139,121.9
21140,100.0
21141,165.0
21144,110.0
21145,171.7
21146,104.8
21147,115.3
21148,98.5
21150,129.1
21152,186.5
21154,115.7
21157,209.4
21159,123.0
21160,106.6
21161,94.9
21163,136.5
21165,116.2
21166,154.5
21178,116.2
21179,190.4
21181,152.8
21184,192.4
21185,94.5
21188,134.0
21190,131.5
21191,134.2
21196,96.1
21199,189.2
21200,182.0
21202,159.6
21204,126.5
