0,44.2
1,8.2
2,28.8
4,19.4
5,8.2
6,18.6
7,-7.2
9,11.3
10,26.2
11,10.6
12,26.2
14,8.2
17,54.5
19,34.1
20,39.7
21,9.9
23,18.5
25,35.1
26,25.2
27,16.6
31,32.0
32,21.0
33,38.5
36,10.2
37,20.4
40,36.2
41,28.8
42,5.2
43,14.8
46,6.3
48,26.0
50,22.6
51,28.8
54,32.8
56,33.4
58,17.3
59,17.1
61,39.1
62,6.0
68,18.5
69,13.6
70,31.3
76,31.5
78,2.0
79,46.8
80,4.8
82,7.9
84,21.2
86,8.0
89,26.2
91,36.2
94,29.2
95,7.8
97,27.6
98,51.9
100,34.3
106,29.8
107,-2.1
109,10.5
112,36.1
113,19.5
116,24.8
117,54.5
121,34.5
122,22.1
123,14.4
129,21.0
130,37.6
131,30.0
133,28.6
137,17.4
139,46.8
147,36.0
148,20.7
149,31.3
150,5.6
156,3.7
158,30.7
159,44.2
161,29.5
163,33.4
164,8.3
165,26.1
166,37.5
169,33.9
170,21.9
171,34.5
180,36.5
185,32.9
187,11.4
191,31.3
194,4.9
201,31.3
202,6.8
203,25.1
206,38.3
210,6.4
211,23.6
212,36.9
213,28.4
214,15.4
215,24.5
217,24.0
222,23.6
226,22.3
227,11.4
229,28.3
230,15.3
231,20.9
232,18.5
233,29.9
235,2.6
236,29.2
237,29.8
239,28.7
241,16.3
242,15.9
243,28.4
245,33.2
247,22.3
249,31.0
251,25.2
252,10.8
256,15.4
257,33.5
259,7.3
261,19.0
263,13.7
264,10.8
265,21.3
268,23.5
272,38.2
273,15.1
274,21.0
276,10.5
277,12.4
284,3.0
285,18.5
286,26.2
293,15.9
295,31.0
296,30.1
297,35.7
298,24.0
299,25.1
300,18.9
304,5.6
306,25.8
307,7.4
309,25.5
310,18.1
313,8.2
314,39.6
315,13.6
317,31.0
318,23.8
319,17.1
321,2.8
322,15.9
323,2.1
330,31.7
333,8.2
339,19.4
341,28.1
343,15.9
345,20.9
346,23.2
349,28.1
351,34.3
353,8.2
358,12.8
360,12.5
362,15.9
364,38.2
366,9.4
367,25.1
368,21.2
369,13.5
371,17.6
372,10.8
373,11.2
375,33.9
376,21.7
377,25.9
378,9.8
381,29.9
382,8.2
383,22.4
384,22.3
385,39.9
386,13.1
388,24.2
389,3.1
391,13.0
393,13.3
394,2.4
396,25.0
397,27.2
403,10.8
405,21.6
409,17.0
410,2.4
412,38.7
413,18.5
415,6.5
417,35.7
419,3.2
421,17.1
423,5.6
425,38.5
429,3.5
432,17.2
433,13.3
434,23.0
436,36.3
440,2.7
443,5.6
447,22.7
450,12.3
451,33.7
452,8.2
453,15.6
461,6.0
462,15.9
463,10.4
466,23.1
469,22.5
470,23.1
471,35.2
473,10.8
474,32.6
476,14.5
479,13.6
480,33.0
481,22.9
483,8.2
485,25.5
486,30.0
487,12.0
488,34.5
489,39.8
491,23.0
492,8.2
496,17.8
499,34.9
500,2.6
501,15.9
504,37.2
508,19.0
509,16.1
512,10.8
513,2.5
514,2.0
515,3.7
516,15.1
521,16.8
522,10.8
523,27.8
525,5.9
526,35.8
527,31.6
530,15.5
532,9.7
533,21.0
535,36.6
537,38.1
540,16.7
541,5.7
543,5.6
547,11.9
548,23.5
549,33.4
552,15.9
558,39.2
560,27.3
561,36.1
563,3.0
566,13.2
569,19.1
572,10.8
574,4.0
576,30.9
579,36.7
580,36.7
581,26.8
582,5.6
585,22.2
587,8.2
591,35.4
592,8.2
594,32.5
595,3.2
596,26.0
597,9.8
598,16.1
601,28.1
602,13.3
603,3.8
604,12.3
612,8.2
613,13.2
614,38.1
617,11.6
619,24.9
620,37.6
621,15.9
622,16.9
623,12.4
624,15.0
625,18.0
628,36.3
629,17.2
631,10.8
632,36.8
638,8.3
642,8.2
643,37.7
644,16.4
645,31.9
647,6.8
651,13.3
652,14.3
653,15.1
655,24.7
657,35.1
662,10.8
665,7.2
668,37.4
670,31.2
671,9.0
672,21.0
673,34.5
674,6.7
676,2.3
678,11.0
680,37.4
681,26.6
682,13.2
683,3.0
684,32.1
685,11.8
688,13.7
690,36.2
692,15.9
695,13.5
698,13.0
699,31.8
702,3.0
704,16.1
705,10.5
706,18.6
708,8.5
709,34.2
710,33.1
711,5.6
712,22.3
715,13.9
716,20.6
720,15.9
722,5.1
724,7.2
725,14.7
727,15.2
729,5.9
730,28.7
731,34.8
732,8.2
738,24.6
741,15.9
745,2.1
746,11.5
751,8.2
752,6.9
754,9.0
755,5.5
756,35.0
758,37.3
760,15.9
764,31.6
765,11.0
766,31.6
767,7.4
769,38.9
771,8.2
775,20.8
776,18.2
777,12.3
778,26.4
779,29.8
780,15.9
782,25.5
784,23.1
785,29.1
786,14.2
788,14.3
790,8.9
791,10.8
792,27.4
798,8.5
800,34.0
801,10.8
802,7.3
806,34.7
809,5.9
810,6.4
811,21.1
812,18.5
813,20.6
818,25.4
821,19.0
822,3.0
823,4.1
829,36.8
831,10.8
833,22.1
836,26.2
839,15.8
840,24.8
841,5.6
843,11.8
846,19.3
847,12.2
850,10.8
851,10.8
852,15.9
853,10.2
855,31.4
858,13.3
859,35.2
862,8.2
863,29.8
865,34.4
867,13.2
869,33.7
870,34.1
871,8.2
873,6.5
877,24.1
879,28.7
880,15.9
881,39.2
885,19.5
888,11.9
890,8.2
893,34.2
894,24.9
895,3.4
896,10.8
897,21.4
899,3.2
900,15.9
902,9.4
905,22.1
907,18.0
910,10.8
911,35.2
912,4.6
915,9.6
920,8.2
922,33.4
923,21.8
925,24.8
928,8.9
929,37.6
930,13.3
934,21.5
935,21.2
936,35.8
937,32.9
941,10.8
942,23.2
946,15.4
948,8.6
950,22.6
951,15.9
953,9.5
956,12.8
959,23.1
961,5.6
962,9.0
963,28.0
968,13.9
970,8.2
971,6.6
973,28.3
975,17.5
979,13.3
982,33.6
983,10.1
986,14.4
989,10.6
991,10.8
992,32.9
994,31.8
998,3.9
999,21.5
1000,34.8
1001,8.2
1002,15.5
1003,28.1
1004,9.1
1007,12.6
1008,16.5
1009,5.3
1010,20.2
1011,33.9
1017,30.2
1018,37.5
1020,24.5
1022,-7.2
1023,17.1
1025,37.4
1026,39.5
1027,10.5
1028,32.9
1031,7.2
1032,25.0
1034,51.9
1035,11.8
1037,16.3
1038,32.2
1039,12.0
1040,36.4
1041,4.0
1042,24.3
1045,33.9
1049,24.3
1051,3.1
1052,3.4
1057,33.9
1062,3.8
1063,24.6
1066,14.9
1067,10.7
1069,18.5
1073,2.6
1075,36.4
1076,33.6
1078,28.0
1079,14.9
1080,13.3
1081,5.6
1086,5.2
1087,24.6
1090,27.2
1091,44.2
1093,13.0
1094,12.9
1097,26.7
1098,16.8
1100,30.0
1102,-9.8
1103,21.6
1111,21.6
1114,49.3
1116,25.5
1121,37.7
1122,33.9
1124,25.4
1126,33.9
1128,19.4
1129,16.1
1131,8.5
1134,36.6
1135,16.1
1137,28.8
1139,31.5
1140,20.6
1143,26.1
1144,23.7
1145,30.7
1148,15.9
1149,6.8
1150,21.7
1153,6.2
1154,24.5
1158,8.8
1160,8.2
1161,4.7
1162,30.3
1164,19.6
1166,22.5
1167,27.1
1170,28.8
1173,27.2
1174,26.0
1178,4.8
1180,7.2
1181,-4.7
1182,22.1
1184,9.1
1185,25.1
1187,34.7
1189,36.2
1190,19.6
1191,37.2
1193,51.9
1194,30.5
1195,22.1
1197,36.8
1198,12.0
1199,14.5
1200,5.8
1201,12.1
1205,31.3
1207,37.2
1210,18.2
1212,30.9
1214,8.1
1215,39.8
1216,36.5
1218,39.3
1219,6.0
1221,8.9
1222,10.3
1223,3.1
1227,23.6
1229,22.1
1230,15.0
1231,18.5
1233,22.4
1234,31.5
1238,24.0
1239,13.3
1241,25.2
1247,39.5
1249,33.7
1250,39.1
1251,5.0
1252,37.9
1253,14.8
1255,2.4
1257,33.2
1259,30.0
1260,25.5
1262,-9.8
1266,36.8
1268,38.7
1269,29.4
1272,26.0
1273,51.9
1275,8.3
1277,6.0
1279,19.8
1280,3.8
1285,31.3
1288,14.0
1289,23.3
1290,18.2
1292,18.1
1296,31.3
1297,9.9
1301,33.3
1307,18.5
1308,16.2
1311,25.9
1315,27.0
1317,30.3
1318,10.8
1319,22.5
1320,2.8
1323,29.4
1325,38.5
1326,2.5
1329,33.8
1331,46.8
1340,14.1
1341,6.8
1342,-9.8
1353,46.8
1357,17.0
1358,30.4
1359,6.6
1361,23.9
1364,31.3
1365,31.9
1367,5.0
1368,11.4
1369,34.6
1371,6.8
1372,23.8
1374,20.0
1375,7.1
1376,26.2
1381,34.9
1383,15.3
1385,11.2
1386,18.2
1387,15.9
1390,23.8
1391,28.2
1392,14.5
1394,22.3
1399,8.2
1401,5.8
1403,21.1
1406,6.7
1410,31.3
1413,12.8
1414,4.3
1418,7.2
1419,10.1
1421,-4.7
1423,19.5
1424,17.2
1425,36.4
1426,37.4
1430,32.2
1431,22.2
1432,51.9
1436,9.8
1438,30.8
1439,7.3
1441,18.7
1442,10.2
1443,31.3
1444,15.2
1445,29.4
1447,17.2
1450,11.3
1451,15.4
1452,32.3
1453,4.3
1455,33.9
1459,2.3
1461,14.7
1462,14.2
1464,35.2
1467,21.0
1468,30.5
1473,38.9
1477,5.4
1478,13.3
1479,26.0
1481,13.1
1484,27.3
1485,5.3
1486,14.7
1488,16.7
1489,41.6
1493,16.3
1494,24.2
1495,23.6
1501,-9.8
1506,15.6
1508,32.0
1509,6.4
1510,16.4
1512,51.9
1513,11.4
1515,38.3
1516,25.3
1518,27.1
1524,31.3
1525,33.9
1528,36.6
1530,19.9
1531,8.9
1532,3.1
1534,8.0
1536,31.3
1537,24.6
1540,39.9
1543,26.7
1544,17.6
1546,15.0
1547,15.9
1548,11.5
1549,8.7
1550,5.1
1554,32.7
1555,11.7
1558,8.2
1561,33.0
1562,28.0
1563,4.9
1564,35.9
1568,28.8
1570,25.7
1576,28.5
1577,38.4
1579,14.3
1580,-4.7
1583,35.9
1584,14.7
1586,35.1
1587,26.1
1590,13.4
1591,33.5
1592,51.9
1595,3.6
1596,16.2
1597,6.7
1603,31.3
1604,9.2
1605,23.3
1609,2.0
1610,20.6
1614,36.5
1617,10.1
1618,12.0
1620,20.5
1626,21.0
1628,9.9
1629,7.1
1630,34.6
1633,35.1
1635,12.0
1636,11.8
1637,13.3
1638,12.3
1640,6.4
1641,30.7
1643,10.7
1648,36.5
1651,14.0
1652,10.0
1653,2.8
1654,17.6
1656,32.3
1658,17.9
1659,17.3
1660,-7.2
1661,28.4
1662,34.7
1666,27.1
1668,25.1
1669,38.7
1670,37.0
1672,51.9
1673,23.6
1675,8.6
1679,22.4
1681,34.6
1682,37.7
1683,31.3
1685,21.3
1687,31.1
1688,35.1
1690,30.7
1691,15.3
1694,33.9
1696,34.5
1697,11.0
1699,33.6
1702,14.5
1703,30.4
1704,19.2
1705,18.5
1706,34.1
1709,6.7
1710,12.1
1711,9.5
1713,26.4
1717,8.2
1720,18.1
1721,23.0
1722,23.3
1723,6.6
1724,6.0
1726,16.6
1728,21.0
1730,33.6
1731,12.3
1732,29.4
1733,33.5
1735,9.7
1737,38.0
1739,-2.1
1740,24.4
1743,30.9
1744,36.2
1746,21.3
1748,9.8
1749,19.9
1751,51.9
1753,26.8
1755,15.6
1759,21.5
1760,29.8
1761,10.1
1762,28.8
1764,12.8
1766,20.0
1773,39.1
1774,2.5
1775,11.5
1779,10.8
1784,23.6
1785,2.3
1791,2.5
1793,36.7
1794,37.8
1795,15.3
1797,13.3
1798,21.5
1799,26.2
1800,17.9
1801,2.9
1802,22.7
1808,33.9
1809,17.0
1810,15.2
1811,31.9
1812,38.9
1814,37.1
1816,4.6
1817,34.2
1818,34.8
1819,-4.7
1821,10.8
1828,5.2
1830,51.9
1836,3.3
1837,26.8
1838,19.1
1841,7.1
1842,33.9
1843,12.2
1845,12.6
1846,2.7
1847,28.9
1849,20.8
1851,24.5
1853,33.9
1855,28.8
1861,5.8
1862,10.2
1863,12.3
1864,39.9
1865,18.5
1866,11.1
1869,22.9
1872,4.9
1875,25.6
1876,10.8
1877,29.2
1879,13.8
1882,38.3
1884,37.1
1885,7.5
1886,12.5
1887,38.2
1888,41.6
1892,3.1
1893,29.7
1894,23.2
1898,7.7
1899,-9.8
1902,16.8
1904,11.7
1906,37.5
1907,17.5
1908,9.0
1910,49.3
1911,16.2
1913,39.7
1914,34.0
1915,32.2
1918,9.0
1923,33.9
1927,2.5
1929,33.6
1934,31.3
1935,28.4
1936,27.6
1939,8.6
1942,5.8
1945,18.5
1947,22.3
1948,25.6
1952,3.3
1953,13.6
1956,8.2
1958,22.0
1959,5.8
1963,16.5
1967,26.2
1968,3.9
1972,2.5
1978,-4.7
1980,22.8
1981,19.0
1982,26.8
1983,4.1
1985,37.3
1990,51.9
1991,31.6
1992,3.2
1999,14.7
2001,28.8
2002,32.1
2003,16.9
2007,32.5
2008,29.4
2010,4.7
2011,15.7
2013,33.9
2014,17.6
2019,22.7
2022,3.2
2023,14.9
2024,21.0
2026,20.1
2027,13.9
2028,4.3
2029,20.8
2030,7.2
2032,38.3
2033,23.4
2035,13.3
2036,2.5
2038,32.3
2042,10.2
2045,19.5
2046,36.5
2047,9.2
2049,31.6
2050,26.9
2055,8.5
2058,5.6
2059,-9.8
2064,9.8
2066,32.9
2067,23.5
2068,30.2
2070,51.9
2072,20.0
2073,4.9
2074,16.8
2079,7.4
2081,31.3
2082,6.6
2084,32.6
2086,11.6
2087,35.1
2089,29.0
2090,12.6
2091,17.5
2093,31.3
2094,6.3
2095,20.8
2096,23.6
2097,22.8
2100,39.7
2101,4.6
2103,33.7
2104,18.5
2106,19.3
2107,13.6
2108,17.5
2112,39.4
2113,7.5
2114,10.6
2115,8.2
2117,13.5
2118,34.6
2120,37.4
2121,7.0
2122,15.7
2123,5.5
2124,17.1
2125,7.5
2126,21.0
2129,8.9
2132,36.6
2136,12.3
2137,5.1
2138,-4.7
2139,38.3
2140,36.7
2141,27.2
2143,2.6
2144,12.3
2145,30.2
2148,19.0
2149,54.5
2151,34.0
2152,35.6
2153,16.3
2155,2.9
2158,27.6
2160,28.8
2161,18.0
2162,25.8
2163,14.0
2168,10.5
2171,36.5
2172,7.0
2173,17.5
2174,26.8
2177,24.9
2181,13.4
2182,23.2
2183,23.6
2189,38.9
2191,27.7
2194,12.3
2195,15.9
2196,15.1
2200,28.3
2202,24.2
2206,31.3
2207,15.3
2210,16.5
2213,7.0
2214,6.0
2215,27.4
2216,14.1
2217,-7.2
2219,37.3
2221,24.1
2223,34.0
2226,8.5
2229,51.9
2234,18.3
2237,35.5
2239,39.7
2240,28.8
2241,28.7
2244,29.8
2245,32.5
2247,35.6
2249,11.7
2250,23.1
2251,33.9
2253,32.1
2255,36.5
2257,21.5
2258,18.0
2259,10.1
2260,16.4
2261,4.2
2263,2.4
2264,21.0
2267,22.0
2269,13.9
2270,11.8
2274,21.4
2275,13.3
2277,10.8
2279,33.2
2280,23.2
2282,5.4
2284,23.5
2286,41.6
2288,23.7
2289,20.6
2290,25.5
2291,23.6
2292,5.3
2296,13.4
2297,-9.8
2300,3.9
2301,23.7
2303,29.6
2304,22.1
2306,33.3
2309,49.3
2313,36.0
2317,39.0
2318,16.9
2321,31.3
2322,38.6
2323,25.8
2324,33.7
2325,31.8
2326,39.2
2327,12.6
2329,12.2
2332,28.8
2334,18.6
2335,19.1
2336,38.1
2338,21.2
2339,6.5
2341,23.8
2342,22.1
2343,15.9
2346,14.1
2347,18.4
2350,7.6
2353,34.5
2355,8.2
2360,8.4
2362,39.9
2364,9.6
2365,28.8
2366,29.6
2368,28.1
2369,30.2
2370,34.9
2371,15.7
2376,-4.7
2377,14.5
2379,35.4
2380,30.9
2381,2.1
2382,2.8
2384,22.8
2388,54.5
2392,16.3
2396,32.1
2397,30.3
2398,39.8
2400,31.3
2405,19.2
2408,24.6
2411,36.5
2415,25.3
2416,2.1
2417,21.8
2420,31.2
2422,21.0
2423,23.6
2424,5.4
2428,11.6
2429,17.4
2432,2.1
2434,15.9
2435,24.0
2436,34.5
2438,5.5
2445,36.5
2446,23.6
2447,30.2
2448,7.8
2450,10.9
2451,28.0
2452,9.7
2453,19.4
2454,33.6
2456,27.6
2457,-7.2
2462,37.9
2464,23.9
2465,19.5
2466,29.2
2468,51.9
2469,3.7
2471,2.3
2478,32.2
2480,31.3
2487,14.8
2490,22.6
2491,33.9
2495,34.0
2499,5.1
2501,34.5
2502,18.5
2508,36.6
2509,18.2
2510,40.0
2512,16.8
2513,10.8
2515,3.5
2517,2.9
2520,24.7
2521,34.0
2522,24.4
2524,12.5
2525,10.3
2526,46.8
2534,18.5
2535,35.8
2537,-9.8
2544,29.5
2545,11.3
2548,49.3
2549,18.9
2556,37.3
2557,21.9
2558,5.2
2560,31.3
2561,5.5
2565,25.0
2571,28.8
2572,26.5
2575,28.4
2578,14.5
2579,7.4
2580,23.8
2582,15.9
2583,32.6
2584,7.7
2585,2.7
2588,26.2
2589,32.6
2592,27.3
2594,5.6
2595,4.6
2597,9.7
2599,31.0
2605,31.3
2606,12.6
2607,17.6
2609,19.0
2611,16.3
2612,23.8
2616,-7.2
2618,24.7
2623,12.8
2627,51.9
2628,35.8
2631,12.4
2632,17.4
2634,18.8
2636,29.2
2637,5.6
2638,31.3
2639,22.9
2641,12.1
2642,26.5
2643,2.6
2646,7.3
2649,31.3
2650,33.9
2651,36.6
2653,28.2
2654,7.8
2656,7.2
2658,10.5
2659,19.0
2661,37.1
2662,21.0
2664,13.0
2667,2.0
2669,38.5
2673,10.8
2676,16.9
2677,3.3
2679,15.2
2680,35.7
2681,20.9
2684,41.6
2685,28.2
2686,36.4
2690,19.8
2693,32.0
2696,-9.8
2698,15.6
2700,38.9
2703,17.6
2704,8.1
2705,37.4
2706,15.1
2707,51.9
2708,19.3
2709,2.3
2712,5.3
2717,25.6
2718,31.3
2722,39.7
2723,23.3
2725,7.3
2728,28.6
2730,6.1
2731,31.3
2732,6.4
2733,17.9
2734,4.6
2735,8.7
2738,26.0
2740,14.4
2741,23.4
2742,18.5
2743,12.9
2744,34.9
2747,17.1
2750,35.6
2752,4.3
2753,8.2
2760,24.9
2761,10.3
2763,28.8
2764,12.1
2765,17.5
2769,4.0
2770,6.9
2771,11.2
2772,7.4
2773,5.3
2775,-4.7
2776,5.4
2777,35.4
2781,36.5
2782,9.6
2786,54.5
2787,36.4
2794,23.6
2798,28.8
2799,39.6
2801,25.8
2802,4.6
2803,5.4
2804,3.1
2806,36.4
2808,38.0
2809,36.5
2810,29.2
2813,2.4
2816,29.9
2817,18.5
2818,14.4
2821,23.6
2822,38.3
2825,31.3
2826,29.8
2828,39.0
2830,11.8
2832,13.3
2833,16.5
2835,3.7
2836,35.3
2837,26.9
2840,36.0
2843,36.5
2846,39.2
2847,17.9
2849,10.3
2851,26.1
2852,16.5
2853,38.7
2854,6.1
2855,-7.2
2857,5.3
2859,11.0
2861,15.9
2864,29.3
2865,32.3
2867,51.9
2872,39.4
2875,38.6
2876,13.7
2878,31.3
2881,34.1
2882,11.9
2883,15.3
2884,38.5
2885,5.2
2886,40.0
2887,22.3
2889,31.3
2890,8.2
2891,14.1
2895,5.9
2898,27.8
2899,33.4
2900,18.5
2903,27.4
2908,9.0
2910,19.2
2912,10.8
2913,2.1
2914,16.9
2918,17.9
2921,32.8
2923,37.5
2924,44.2
2925,37.4
2926,31.8
2927,38.2
2931,34.5
2933,12.5
2934,4.9
2935,-9.8
2936,37.2
2938,35.4
2940,35.6
2941,17.5
2944,22.7
2946,21.4
2947,51.9
2950,34.1
2951,32.0
2956,13.2
2957,19.7
2958,31.3
2962,5.1
2964,8.1
2967,4.3
2968,9.9
2969,31.3
2970,2.6
2971,17.7
2972,37.4
2973,32.6
2975,13.5
2976,23.5
2978,39.8
2979,39.0
2980,15.9
2993,8.2
3003,31.3
3008,6.8
3009,13.9
3011,12.3
3013,10.0
3014,-4.7
3017,4.0
3019,29.6
3021,35.4
3022,30.6
3023,22.8
3025,51.9
3026,38.0
3027,7.7
3028,14.8
3029,26.2
3030,34.1
3031,25.0
3033,30.5
3034,8.2
3035,11.8
3036,31.9
3037,31.3
3038,2.7
3040,17.2
3042,28.3
3045,32.4
3048,36.5
3049,26.4
3051,5.3
3052,6.7
3054,27.5
3056,25.3
3057,31.4
3058,22.8
3059,5.1
3060,21.0
3061,7.6
3063,11.5
3066,34.6
3067,18.3
3070,13.7
3072,13.3
3074,14.8
3075,24.3
3077,12.9
3082,35.2
3083,41.6
3086,21.1
3088,8.8
3092,4.5
3094,-9.8
3096,21.6
3099,24.3
3100,18.0
3103,2.9
3105,49.3
3108,17.4
3110,11.9
3115,31.4
3117,31.3
3118,15.2
3119,5.7
3120,5.8
3126,3.7
3129,31.3
3130,5.5
3132,33.0
3134,16.1
3135,9.5
3139,30.5
3140,15.9
3141,5.1
3142,29.6
3143,11.4
3144,3.1
3148,28.9
3149,3.9
3151,10.8
3154,25.2
3156,38.1
3157,18.1
3159,33.3
3161,11.1
3162,7.4
3163,49.3
3164,29.1
3165,26.4
3166,21.2
3167,4.0
3168,4.2
3170,8.2
3171,40.0
3172,9.7
3174,-9.8
3175,24.6
3176,22.9
3177,24.5
3182,25.0
3183,38.4
3184,5.0
3185,49.3
3187,32.7
3188,3.2
3190,2.5
3192,13.3
3193,37.6
3195,32.9
3197,33.9
3198,11.1
3199,30.5
3203,20.9
3205,5.8
3208,33.3
3209,28.8
3211,31.0
3215,23.1
3216,3.7
3217,30.5
3218,35.6
3219,30.8
3220,15.9
3225,35.6
3226,7.9
3227,39.5
3230,15.5
3231,5.6
3233,29.2
3234,39.2
3236,39.6
3237,29.4
3240,11.8
3241,36.5
3242,24.1
3244,12.8
3245,39.2
3246,19.7
3248,21.9
3252,35.0
3254,-7.2
3255,37.0
3260,25.9
3261,4.9
3265,51.9
3266,38.4
3268,14.9
3270,14.8
3271,8.3
3272,6.5
3274,20.0
3275,8.3
3276,31.3
3278,22.1
3280,35.0
3282,18.9
3283,30.3
3284,19.9
3285,31.6
3286,24.8
3287,4.1
3288,33.9
3289,10.6
3290,6.3
3295,17.8
3297,18.2
3298,23.0
3299,18.5
3301,21.5
3302,31.6
3305,19.9
3306,33.7
3307,6.9
3309,9.7
3310,10.8
3311,24.6
3312,30.8
3313,26.1
3314,16.6
3317,20.3
3319,31.4
3320,22.3
3322,44.2
3323,20.4
3324,33.8
3325,3.5
3330,35.4
3333,23.3
3334,-12.4
3335,6.0
3337,36.3
3339,8.9
3340,12.9
3346,44.2
3351,2.6
3356,29.5
3357,28.8
3361,22.9
3365,31.8
3368,23.6
3373,19.7
3380,8.2
3381,38.9
3382,3.2
3384,8.4
3388,11.8
3389,35.0
3391,8.2
3394,9.4
3395,31.2
3396,10.1
3400,17.0
3401,28.8
3402,9.1
3404,38.9
3405,6.6
3407,24.2
3410,32.0
3411,16.6
3412,-4.7
3414,27.4
3418,16.5
3420,15.4
3423,19.3
3424,54.5
3428,17.1
3432,19.9
3435,31.3
3436,16.8
3437,18.8
3442,27.9
3446,33.9
3447,4.5
3448,25.6
3449,6.5
3450,24.0
3451,39.3
3452,37.4
3453,28.5
3454,37.7
3456,37.8
3459,21.0
3463,5.4
3465,4.1
3466,6.4
3467,17.4
3468,13.3
3469,7.5
3470,10.8
3471,4.8
3472,20.3
3475,2.4
3479,9.5
3481,41.6
3482,3.8
3486,37.8
3488,32.9
3489,21.9
3492,-9.8
3493,11.8
3494,31.7
3498,12.7
3499,10.1
3504,51.9
3506,30.4
3508,6.3
3510,22.5
3511,10.4
3515,31.3
3516,7.2
3517,22.6
3518,13.1
3520,4.5
3527,31.3
3529,2.9
3530,13.5
3534,6.1
3535,18.2
3537,32.8
3538,18.5
3541,4.8
3543,2.6
3544,34.6
3546,3.8
3548,5.8
3550,10.8
3551,36.6
3552,16.3
3554,29.3
3556,31.0
3561,49.3
3562,29.1
3563,39.6
3565,28.5
3567,17.4
3572,-12.4
3576,32.2
3582,10.8
3585,41.6
3586,35.0
3587,25.3
3588,14.5
3595,13.8
3596,5.4
3597,28.8
3602,2.1
3603,2.6
3604,6.5
3605,30.9
3608,21.0
3609,36.7
3610,18.0
3612,31.2
3614,7.9
3617,21.2
3618,32.7
3619,8.2
3621,31.9
3623,34.5
3628,6.6
3630,5.6
3633,20.0
3634,23.0
3637,14.2
3640,36.5
3643,31.1
3645,34.8
3649,7.2
3651,31.3
3652,-7.2
3653,36.4
3654,36.5
3655,14.5
3656,5.7
3658,10.9
3663,51.9
3664,16.1
3665,23.4
3667,21.3
3668,15.0
3669,11.9
3670,16.3
3673,37.7
3675,31.3
3676,3.7
3678,27.5
3679,24.7
3681,8.1
3683,29.9
3685,2.7
3686,33.9
3690,13.2
3695,13.1
3697,21.0
3699,30.8
3705,34.0
3706,16.1
3708,10.8
3710,12.6
3712,31.4
3715,19.8
3716,3.4
3718,4.5
3721,44.2
3722,5.9
3723,19.5
3725,4.3
3726,21.0
3728,6.7
3731,16.6
3732,-9.8
3738,12.0
3740,26.8
3742,22.2
3743,49.3
3746,26.4
3747,10.7
3755,31.3
3756,27.3
3757,4.3
3759,5.7
3760,14.1
3762,39.2
3763,22.1
3764,31.5
3765,35.8
3766,28.8
3767,13.3
3769,4.8
3770,13.5
3771,34.2
3774,28.8
3775,27.5
3777,15.9
3782,16.6
3785,8.2
3786,8.6
3787,11.9
3788,30.6
3789,8.2
3790,28.0
3791,17.3
3792,7.6
3794,19.1
3796,23.1
3799,33.7
3800,31.3
3804,39.9
3810,19.1
3811,-7.2
3812,18.3
3816,7.2
3817,18.9
3818,35.9
3819,28.0
3820,7.5
3822,54.5
3824,37.9
3826,34.7
3829,28.8
3830,37.8
3832,9.9
3833,31.3
3834,22.8
3835,37.0
3837,20.1
3838,28.3
3839,15.6
3842,6.8
3843,35.9
3845,36.5
3846,18.4
3847,21.2
3851,20.1
3852,4.0
3856,36.0
3857,21.0
3862,28.4
3863,32.3
3864,21.6
3866,37.6
3867,39.8
3868,10.8
3872,24.5
3876,10.9
3878,4.2
3879,39.1
3882,14.7
3885,16.1
3886,10.9
3887,2.2
3891,-9.8
3892,32.0
3893,28.1
3898,37.9
3899,25.0
3901,7.5
3902,49.3
3905,9.6
3906,17.9
3909,5.2
3910,36.4
3912,24.7
3913,31.3
3914,19.1
3915,38.2
3919,31.5
3920,13.9
3923,27.9
3924,30.0
3926,31.3
3927,17.6
3928,4.2
3931,20.0
3933,24.6
3935,19.6
3936,29.0
3937,18.5
3938,15.1
3939,8.0
3941,34.3
3943,24.3
3945,34.8
3947,11.2
3948,10.8
3949,31.7
3950,11.9
3955,34.1
3956,20.1
3958,34.7
3959,46.8
3961,30.5
3962,6.9
3965,29.7
3966,8.8
3968,28.8
3971,-12.4
3974,8.7
3976,26.5
3980,20.3
3982,6.0
3983,41.6
3986,4.9
3993,19.7
3994,16.1
3995,28.8
3997,35.7
3999,18.2
4001,6.6
4003,20.7
4006,23.6
4010,18.1
4017,4.2
4018,8.2
4019,13.2
4024,25.4
4028,5.6
4029,22.6
4030,6.3
4033,12.2
4034,23.0
4036,23.9
4037,10.8
4038,33.9
4039,16.2
4041,37.7
4042,33.8
4043,38.3
4045,2.3
4046,24.2
4047,32.6
4049,-7.2
4052,9.1
4055,36.1
4056,30.4
4058,39.8
4059,39.4
4062,51.9
4067,32.2
4071,2.5
4073,33.9
4074,39.9
4075,35.8
4076,9.0
4079,17.1
4080,20.8
4084,33.9
4087,4.9
4090,18.0
4093,3.0
4094,4.7
4096,18.5
4099,19.7
4104,35.7
4106,2.7
4107,10.8
4108,10.2
4109,39.9
4119,44.2
4120,17.2
4124,9.4
4127,35.7
4130,-9.8
4132,3.5
4133,15.0
4134,2.4
4135,3.3
4138,24.2
4141,9.9
4142,51.9
4144,17.7
4145,19.4
4148,11.6
4151,12.6
4152,23.9
4153,33.9
4155,34.4
4157,34.8
4160,18.7
4161,23.4
4164,28.8
4166,31.7
4168,18.5
4173,11.2
4175,15.9
4180,23.1
4182,22.5
4183,38.4
4187,3.2
4188,8.2
4198,28.8
4200,17.1
4201,37.3
4208,11.9
4209,-7.2
4211,7.9
4214,15.3
4217,29.7
4220,51.9
4222,33.1
4223,22.9
4224,6.1
4229,24.9
4231,30.1
4232,31.3
4233,10.5
4234,19.6
4240,8.0
4241,30.8
4243,33.9
4246,8.8
4250,34.7
4252,8.1
4253,23.8
4254,33.2
4255,21.0
4258,10.4
4259,26.8
4261,13.3
4267,13.3
4270,31.4
4271,33.0
4275,4.3
4277,33.6
4278,41.6
4279,29.3
4280,19.2
4282,26.5
4283,33.3
4285,19.2
4286,8.3
4287,26.5
4289,-9.8
4296,15.5
4299,9.8
4300,51.9
4301,20.6
4302,25.7
4303,25.8
4305,16.2
4306,19.2
4307,2.0
4310,34.6
4312,31.3
4314,18.5
4315,33.0
4316,17.9
4322,20.8
4323,15.8
4324,31.3
4325,17.7
4326,35.1
4327,8.4
4328,22.7
4329,27.3
4330,37.0
4331,23.5
4333,34.0
4334,8.5
4335,18.5
4336,3.8
4339,9.1
4340,5.0
4341,16.1
4343,33.4
4346,10.8
4348,13.4
4349,32.9
4350,25.5
4351,12.6
4353,22.6
4358,46.8
4360,36.7
4363,24.2
4364,8.6
4365,8.0
4366,38.4
4368,11.4
4369,-12.4
4371,8.6
4372,38.4
4375,11.3
4376,4.6
4378,7.9
4380,16.2
4381,41.6
4382,26.8
4387,14.6
4388,34.4
4389,4.3
4390,25.5
4392,29.7
4393,28.8
4394,39.6
4396,12.8
4397,32.3
4399,28.0
4401,3.3
4402,34.5
4403,24.1
4405,21.0
4407,32.9
4409,32.7
4410,12.8
4415,31.8
4416,8.2
4422,25.7
4426,8.2
4428,30.7
4432,11.3
4433,35.3
4436,36.5
4437,13.2
4438,11.4
4440,36.9
4441,24.5
4447,7.0
4448,-7.2
4449,32.9
4451,3.0
4454,23.4
4457,30.1
4460,54.5
4465,40.0
4466,10.8
4469,6.8
4471,31.3
4475,38.7
4477,12.2
4483,33.9
4484,12.3
4486,8.1
4488,24.0
4492,18.9
4493,14.7
4494,18.5
4495,24.7
4498,13.9
4499,35.2
4502,24.8
4503,7.1
4504,4.1
4505,10.8
4515,7.4
4516,44.2
4518,38.7
4522,17.3
4529,-9.8
4530,4.9
4531,19.5
4532,24.3
4533,12.6
4534,4.5
4535,2.6
4536,8.9
4540,49.3
4541,31.4
4542,12.2
4543,5.5
4544,9.7
4546,19.0
4547,25.6
4548,32.3
4549,24.3
4551,33.9
4554,8.9
4555,19.0
4559,28.7
4561,5.8
4562,31.3
4563,16.2
4564,29.5
4566,6.9
4567,18.1
4569,38.1
4570,20.0
4571,7.7
4572,34.4
4574,15.9
4576,25.9
4578,17.1
4580,16.6
4581,36.1
4582,7.4
4583,3.0
4584,25.6
4586,5.6
4587,6.6
4588,32.7
4589,10.7
4591,2.2
4593,24.5
4594,27.1
4596,28.8
4598,35.4
4599,36.3
4601,14.0
4602,7.2
4603,4.3
4606,8.3
4608,-7.2
4609,6.0
4610,15.4
4612,10.8
4613,14.6
4615,2.4
4616,5.6
4619,51.9
4620,10.0
4621,31.3
4622,5.8
4624,26.3
4629,13.4
4630,31.3
4631,27.3
4635,3.9
4637,34.4
4641,33.9
4645,20.4
4649,24.5
4652,26.2
4654,21.0
4656,11.9
4657,25.0
4659,6.8
4661,28.3
4662,11.6
4664,7.0
4665,10.8
4666,38.9
4667,21.1
4668,11.0
4669,33.1
4671,25.9
4672,27.7
4673,28.6
4676,39.1
4677,22.5
4679,6.2
4681,8.9
4682,37.3
4684,2.3
4685,31.3
4686,20.4
4687,-7.2
4688,3.6
4690,20.7
4691,16.5
4692,23.8
4694,38.5
4698,35.5
4699,51.9
4700,30.8
4702,24.4
4703,39.5
4710,33.9
4711,18.3
4712,5.6
4713,35.2
4714,37.8
4715,8.3
4716,19.8
4717,22.6
4719,13.0
4722,31.3
4723,18.5
4724,4.2
4726,21.8
4727,26.2
4728,31.9
4730,15.7
4733,18.5
4734,22.0
4735,9.3
4739,30.1
4743,8.5
4745,8.2
4746,31.4
4747,28.6
4750,29.0
4751,20.2
4753,17.4
4755,23.6
4756,8.5
4757,30.1
4759,12.1
4761,20.3
4763,27.0
4764,31.6
4766,-4.7
4767,15.8
4769,37.1
4770,34.8
4772,26.2
4775,14.1
4776,16.2
4777,54.5
4778,31.9
4779,16.9
4780,23.1
4785,8.6
4786,35.0
4788,2.3
4790,28.8
4792,6.0
4798,9.0
4801,36.5
4802,29.7
4805,27.2
4810,26.2
4812,23.6
4814,8.4
4815,35.6
4816,13.4
4817,8.5
4818,17.6
4819,24.4
4820,11.6
4821,8.9
4824,13.3
4827,2.5
4828,34.3
4829,8.4
4831,8.2
4833,37.0
4834,5.3
4835,36.5
4836,23.6
4838,8.7
4839,2.4
4842,2.5
4843,28.7
4844,17.9
4845,8.5
4846,-4.7
4847,28.4
4848,3.5
4850,17.6
4851,2.0
4853,36.9
4854,35.9
4856,33.5
4857,4.0
4858,54.5
4859,24.1
4860,18.4
4861,9.0
4863,20.1
4870,31.3
4871,12.8
4872,3.5
4873,29.3
4874,25.4
4875,3.9
4879,30.9
4881,33.9
4882,23.8
4883,11.3
4885,31.0
4888,22.5
4890,8.8
4892,18.5
4893,8.1
4894,33.8
4896,5.6
4898,38.1
4901,10.4
4902,34.4
4903,10.8
4904,28.4
4906,18.0
4909,2.8
4915,44.2
4917,22.1
4918,19.5
4919,27.0
4921,14.2
4922,12.7
4926,6.2
4927,-9.8
4930,28.0
4931,17.9
4934,33.9
4935,20.0
4936,18.6
4938,51.9
4939,6.9
4943,12.7
4945,28.9
4948,29.1
4949,15.5
4950,33.9
4952,2.6
4954,14.4
4957,19.6
4959,9.6
4960,18.1
4961,28.8
4963,18.9
4966,18.2
4968,7.6
4969,10.5
4972,15.9
4973,6.2
4975,39.4
4979,35.7
4981,31.9
4984,8.2
4985,6.4
4987,26.4
4989,32.1
4992,11.8
4994,29.1
4995,28.8
4996,38.7
4997,13.4
5005,37.7
5006,-4.7
5007,29.2
5008,16.8
5010,12.5
5013,33.1
5017,51.9
5018,6.4
5019,30.5
5020,19.5
5021,19.6
5028,31.3
5035,27.0
5036,16.8
5038,15.8
5040,33.9
5041,38.1
5045,36.0
5047,30.6
5048,18.0
5052,23.6
5057,28.3
5059,32.0
5063,13.3
5069,25.0
5074,39.1
5076,8.8
5077,39.0
5078,33.1
5079,35.4
5080,32.7
5081,20.0
5082,34.6
5086,-9.8
5087,5.8
5088,22.9
5090,2.8
5093,5.3
5097,51.9
5100,34.2
5101,25.5
5102,23.5
5104,8.6
5108,33.9
5109,28.5
5111,3.6
5112,8.4
5113,23.3
5115,18.9
5116,12.1
5120,12.2
5121,33.9
5122,31.2
5124,8.4
5125,12.2
5130,18.3
5132,18.5
5134,14.7
5137,9.5
5138,33.3
5142,23.8
5143,10.8
5146,19.0
5149,30.9
5150,2.4
5152,15.6
5154,49.3
5166,-9.8
5168,13.2
5169,22.4
5170,30.3
5174,16.4
5177,49.3
5181,30.9
5188,17.9
5189,33.9
5191,23.6
5195,12.7
5196,19.8
5198,9.5
5200,28.8
5202,18.5
5205,28.8
5207,4.4
5208,2.5
5212,15.9
5219,38.4
5220,24.6
5222,10.6
5223,8.2
5228,35.2
5231,25.8
5232,13.9
5233,33.9
5235,30.2
5236,12.2
5237,5.5
5239,29.6
5240,10.9
5242,31.6
5244,-4.7
5247,24.9
5249,33.7
5251,3.2
5252,31.7
5253,20.1
5255,5.0
5256,27.5
5257,51.9
5259,3.9
5262,20.6
5263,26.6
5264,17.6
5266,5.6
5267,10.4
5268,31.3
5269,21.2
5271,36.4
5275,12.0
5276,10.1
5278,3.9
5279,33.9
5281,29.7
5283,5.1
5284,30.6
5291,21.0
5295,34.0
5296,38.6
5297,15.4
5300,17.8
5301,36.1
5302,10.8
5303,34.3
5306,7.0
5313,44.2
5316,35.3
5317,30.7
5318,17.4
5319,37.1
5320,36.3
5322,31.7
5324,16.0
5325,-9.8
5327,13.3
5329,28.4
5331,21.7
5334,33.0
5335,30.4
5336,23.7
5337,51.9
5341,37.7
5342,7.7
5343,20.1
5348,31.3
5349,28.4
5350,23.9
5351,6.2
5354,31.5
5359,28.8
5361,13.7
5362,3.6
5363,19.3
5365,34.0
5366,23.4
5367,2.8
5368,39.1
5369,15.8
5370,15.9
5371,30.6
5374,18.3
5375,14.8
5381,3.4
5382,28.8
5383,8.2
5386,18.9
5389,36.8
5392,24.5
5393,28.8
5396,11.3
5397,3.0
5399,20.4
5400,18.7
5404,-4.7
5405,10.0
5408,33.1
5409,19.9
5411,32.1
5412,36.4
5413,22.8
5415,51.9
5417,7.2
5418,29.9
5419,18.0
5421,35.7
5426,20.1
5427,31.3
5430,23.8
5432,12.7
5434,5.1
5436,2.6
5437,21.5
5438,33.9
5439,21.3
5441,21.3
5446,14.5
5448,21.1
5450,21.0
5455,14.5
5460,24.7
5461,33.4
5462,13.3
5465,16.7
5467,30.6
5472,23.8
5473,39.1
5475,9.8
5476,27.8
5480,8.4
5481,21.6
5482,25.5
5484,-9.8
5488,34.2
5490,30.7
5495,51.9
5497,39.5
5499,2.9
5500,34.1
5501,32.4
5503,26.2
5506,34.2
5507,31.3
5508,34.1
5509,26.2
5512,23.7
5514,7.3
5515,6.5
5516,19.3
5517,12.0
5518,34.5
5519,31.3
5524,18.1
5527,28.6
5528,5.0
5530,18.5
5531,34.8
5532,27.9
5533,18.8
5534,17.5
5538,9.8
5539,33.9
5540,31.0
5541,10.8
5543,17.3
5544,8.2
5547,37.4
5548,27.7
5550,35.4
5551,20.0
5553,46.8
5555,37.9
5556,24.0
5557,8.7
5558,33.8
5559,33.9
5562,5.0
5564,-9.8
5565,39.8
5567,33.0
5571,37.4
5573,20.6
5574,23.4
5575,49.3
5578,17.9
5580,14.3
5584,35.6
5586,9.8
5587,31.3
5589,32.6
5590,19.6
5591,19.4
5594,36.7
5599,28.8
5601,2.2
5605,18.1
5606,33.6
5608,25.2
5610,15.9
5611,8.5
5613,24.3
5614,8.0
5616,9.8
5619,28.4
5621,5.6
5623,22.4
5624,38.2
5625,10.9
5629,35.6
5630,27.6
5631,11.0
5632,36.5
5633,14.4
5635,28.1
5636,26.3
5638,28.3
5639,6.3
5640,15.6
5641,23.5
5643,-7.2
5650,39.2
5653,19.1
5654,39.8
5655,51.9
5656,24.8
5657,4.4
5659,14.9
5661,22.5
5663,9.2
5666,31.3
5667,16.0
5668,39.9
5671,22.2
5672,38.4
5675,12.3
5678,33.9
5679,23.3
5680,21.5
5681,31.5
5682,27.0
5684,11.3
5685,4.1
5686,7.6
5689,21.0
5691,35.1
5692,27.8
5693,30.1
5694,19.7
5695,22.5
5697,17.7
5698,21.1
5700,13.3
5701,37.2
5704,16.7
5706,16.3
5707,26.4
5709,27.2
5710,27.8
5711,44.2
5712,15.1
5713,26.5
5715,24.0
5716,30.7
5723,36.3
5724,-9.8
5725,4.0
5726,16.4
5728,34.3
5729,35.5
5730,24.1
5735,49.3
5736,29.5
5737,7.4
5740,34.3
5743,21.4
5744,14.5
5745,9.6
5746,33.9
5747,19.1
5749,3.8
5751,20.1
5753,37.6
5754,39.1
5757,31.3
5764,17.7
5765,13.3
5766,19.0
5768,3.8
5769,15.9
5771,3.2
5772,25.9
5773,3.2
5775,26.3
5776,34.9
5779,34.6
5780,8.2
5781,19.3
5784,17.3
5785,22.1
5786,24.8
5790,17.8
5791,28.8
5793,8.6
5795,35.1
5799,13.2
5800,13.4
5803,-7.2
5805,22.0
5807,30.6
5809,3.1
5810,34.3
5812,19.4
5814,51.9
5815,21.6
5818,27.1
5819,38.7
5820,38.2
5822,9.0
5824,26.6
5825,31.3
5827,26.0
5830,5.4
5834,17.9
5836,33.9
5837,2.1
5839,37.6
5843,28.0
5844,29.3
5847,35.6
5848,21.0
5849,16.6
5851,6.2
5853,32.4
5855,17.4
5856,7.0
5858,23.2
5859,22.2
5860,13.3
5862,33.9
5866,11.1
5869,6.6
5870,4.2
5871,39.1
5876,30.8
5877,8.7
5879,37.1
5880,9.4
5881,36.3
5882,-9.8
5884,12.1
5889,12.2
5890,14.4
5893,24.6
5894,51.9
5895,25.9
5896,9.0
5897,11.6
5898,39.9
5902,27.9
5904,35.3
5905,31.3
5907,36.2
5908,5.1
5910,2.4
5911,30.4
5912,32.8
5914,37.4
5917,31.3
5919,7.4
5923,8.2
5925,35.3
5926,10.2
5928,18.5
5929,24.7
5930,24.3
5934,37.7
5936,7.9
5939,10.5
5940,10.8
5942,15.8
5946,2.3
5948,23.0
5950,12.1
5951,46.8
5956,19.2
5957,33.3
5958,37.2
5959,4.2
5960,25.2
5961,26.7
5962,-9.8
5969,19.1
5970,7.0
5974,49.3
5975,30.7
5981,11.2
5982,14.1
5986,31.3
5989,34.1
5990,35.9
5991,13.7
5994,15.4
5997,28.8
6000,10.4
6001,31.0
6002,11.7
6003,30.6
6004,28.6
6005,33.0
6007,32.0
6008,13.3
6011,31.6
6015,12.6
6018,2.6
6019,11.2
6020,8.2
6024,17.2
6026,28.7
6027,33.9
6029,36.2
6030,33.9
6033,22.8
6036,6.5
6037,35.2
6040,23.7
6041,-7.2
6043,39.9
6046,11.5
6047,16.0
6049,37.7
6050,17.2
6051,7.8
6052,9.5
6053,51.9
6054,6.8
6056,18.3
6057,16.5
6058,32.7
6059,25.0
6060,25.7
6064,22.1
6065,31.3
6073,12.8
6075,4.8
6076,33.9
6078,16.2
6079,13.8
6081,33.0
6084,38.8
6086,34.5
6087,21.0
6088,27.3
6089,8.6
6091,30.4
6097,38.2
6098,10.8
6099,9.1
6100,21.9
6102,9.0
6103,38.5
6105,23.4
6107,6.9
6108,16.6
6109,17.1
6110,44.2
6112,38.7
6113,38.0
6115,23.6
6116,17.5
6117,9.2
6120,15.1
6121,25.2
6122,-9.8
6123,24.4
6124,35.8
6125,24.8
6126,33.2
6127,24.3
6128,30.0
6130,32.1
6132,29.9
6133,51.9
6136,11.4
6138,14.2
6140,23.0
6143,20.1
6144,39.0
6145,31.3
6149,23.1
6150,19.6
6153,20.8
6154,25.2
6156,31.3
6160,16.1
6163,31.7
6165,2.5
6167,18.5
6170,6.6
6171,11.7
6174,8.6
6175,21.9
6177,34.9
6178,8.2
6180,11.6
6181,25.1
6185,11.4
6186,14.4
6188,24.9
6189,30.3
6190,28.8
6199,39.1
6200,24.8
6201,-4.7
6205,7.9
6206,6.8
6207,2.4
6211,2.2
6212,51.9
6213,4.5
6215,13.3
6222,26.8
6223,33.9
6226,27.0
6227,19.7
6229,17.2
6231,33.9
6233,29.5
6235,33.9
6236,37.9
6237,38.4
6238,13.6
6243,26.8
6246,23.6
6247,10.6
6249,3.3
6252,12.8
6255,37.6
6256,4.7
6258,13.3
6259,13.4
6260,2.6
6261,21.6
6266,23.8
6269,41.6
6270,14.2
6273,36.2
6276,34.1
6277,19.9
6280,3.3
6281,-7.2
6282,25.3
6283,18.5
6287,14.4
6288,27.5
6289,13.3
6292,51.9
6293,30.2
6298,27.4
6303,31.3
6308,28.5
6313,13.3
6315,2.4
6316,31.3
6317,25.6
6319,29.0
6320,7.8
6321,21.7
6322,10.9
6323,33.6
6324,3.2
6327,18.5
6328,37.4
6330,39.7
6338,8.2
6343,18.3
6344,37.8
6345,5.9
6347,37.8
6348,23.6
6349,23.2
6350,25.6
6351,6.8
6352,37.6
6353,37.7
6354,33.4
6357,22.7
6359,39.0
6360,-4.7
6370,33.0
6371,54.5
6373,26.7
6374,34.6
6375,17.3
6380,7.0
6381,2.2
6383,28.8
6384,20.0
6392,15.9
6393,25.9
6394,33.9
6395,2.1
6401,25.4
6402,17.5
6405,37.6
6406,23.6
6412,18.4
6413,14.7
6414,20.3
6416,30.8
6417,15.9
6419,26.8
6421,29.8
6422,38.6
6424,13.0
6427,34.2
6428,36.5
6429,13.8
6431,32.2
6432,13.7
6434,11.8
6435,29.0
6436,14.1
6437,38.6
6438,27.0
6439,-7.2
6442,20.3
6446,25.5
6447,34.3
6448,5.7
6449,4.0
6451,20.6
6452,49.3
6454,9.5
6455,8.4
6457,20.9
6458,38.9
6459,4.4
6460,17.9
6461,30.8
6463,31.3
6466,30.9
6467,8.8
6474,33.9
6476,3.7
6482,28.4
6484,33.7
6486,18.5
6490,30.3
6491,24.2
6492,29.4
6493,24.4
6495,21.6
6496,9.3
6497,10.8
6499,19.5
6500,9.2
6501,29.8
6502,32.8
6503,34.4
6504,13.8
6505,34.2
6507,12.9
6508,41.6
6509,25.1
6514,31.6
6515,20.7
6516,3.0
6517,30.5
6518,22.3
6519,34.9
6520,-9.8
6525,31.4
6526,14.0
6527,4.5
6528,38.8
6532,49.3
6534,2.2
6539,33.8
6540,17.7
6542,4.9
6543,33.9
6544,30.8
6546,4.7
6547,19.9
6548,3.3
6550,36.9
6551,23.2
6553,31.7
6554,31.3
6555,15.6
6556,20.4
6557,11.1
6560,27.0
6564,34.8
6565,15.9
6566,24.5
6568,5.0
6571,15.4
6572,9.3
6573,11.7
6574,25.0
6575,4.8
6577,5.6
6582,32.2
6584,21.3
6586,15.1
6587,22.7
6588,31.3
6589,5.0
6590,30.0
6592,5.6
6594,36.0
6595,19.2
6598,12.3
6599,-4.7
6601,32.4
6606,16.9
6608,15.9
6609,24.9
6610,54.5
6613,6.4
6615,17.1
6616,26.6
6617,33.2
6620,2.1
6621,12.8
6622,28.8
6623,24.3
6624,35.9
6626,32.4
6627,29.2
6628,14.1
6629,13.8
6632,22.5
6633,33.9
6634,39.4
6635,39.8
6639,11.4
6640,37.1
6644,21.0
6647,29.1
6648,7.7
6649,5.1
6650,22.5
6651,27.9
6652,24.4
6657,13.3
6658,17.0
6660,8.1
6661,37.7
6662,29.8
6663,11.1
6664,16.1
6665,33.2
6668,39.1
6670,23.1
6673,28.0
6679,-7.2
6680,12.6
6684,38.9
6686,30.3
6689,27.1
6690,51.9
6692,22.3
6696,2.5
6697,16.9
6698,8.0
6699,28.5
6702,33.9
6703,5.4
6704,36.2
6705,12.7
6706,18.6
6707,24.8
6709,34.9
6711,29.5
6712,15.0
6714,31.3
6716,17.9
6717,9.6
6718,37.4
6719,25.0
6720,19.8
6721,12.0
6722,2.8
6725,18.5
6726,36.5
6727,36.2
6728,31.0
6730,33.9
6732,20.5
6734,21.2
6736,8.2
6737,38.7
6738,23.2
6739,39.7
6741,3.6
6743,8.4
6747,23.6
6748,39.2
6752,29.2
6753,24.8
6758,-2.1
6761,25.4
6763,22.6
6767,29.5
6769,51.9
6771,28.3
6774,35.7
6776,12.7
6781,28.8
6782,10.4
6785,5.5
6787,27.9
6791,36.6
6793,36.5
6794,32.8
6795,16.4
6796,5.7
6797,22.4
6802,23.0
6804,23.6
6809,23.3
6810,15.0
6811,32.4
6813,11.2
6814,27.0
6815,13.3
6816,6.2
6825,26.9
6826,3.2
6827,33.9
6828,39.8
6831,32.4
6834,27.5
6837,8.0
6838,-7.2
6840,2.7
6842,10.6
6845,36.4
6849,27.8
6850,51.9
6852,20.1
6854,38.2
6857,15.8
6858,12.6
6861,28.8
6862,20.2
6863,28.5
6864,32.0
6866,34.8
6868,27.8
6871,27.8
6873,33.9
6874,7.2
6881,26.3
6883,9.5
6884,21.0
6885,18.9
6886,4.4
6887,16.8
6888,4.8
6891,25.5
6893,14.9
6894,11.3
6895,10.8
6904,12.3
6905,35.3
6906,41.6
6908,20.5
6910,16.7
6911,17.5
6914,35.2
6915,8.8
6916,14.4
6919,-9.8
6921,30.8
6924,16.3
6925,2.1
6926,10.8
6930,49.3
6931,2.5
6932,30.5
6936,4.8
6939,22.3
6940,2.6
6941,33.9
6942,16.2
6943,32.9
6946,36.5
6952,28.8
6954,2.2
6956,36.5
6958,21.6
6959,3.8
6960,37.3
6962,4.0
6964,18.5
6965,11.0
6967,17.1
6968,11.1
6969,33.5
6970,16.1
6975,8.2
6976,6.9
6978,22.2
6979,26.4
6980,26.6
6981,18.3
6982,33.8
6983,25.7
6984,24.3
6986,31.3
6987,2.4
6988,10.2
6989,3.7
6994,6.5
6997,8.3
6998,-4.7
6999,32.6
7000,11.0
7001,3.1
7002,15.9
7003,2.9
7006,12.0
7008,8.0
7009,51.9
7011,9.6
7012,37.8
7014,30.8
7015,23.6
7016,28.5
7018,15.9
7020,31.3
7021,34.6
7022,23.8
7024,33.3
7025,38.8
7026,3.6
7031,33.9
7033,25.7
7034,22.3
7036,3.6
7037,34.8
7038,19.6
7039,36.9
7040,38.0
7041,37.5
7043,18.5
7044,27.1
7048,11.8
7054,12.4
7055,13.3
7058,25.9
7060,38.2
7061,3.7
7065,12.9
7066,41.6
7071,23.2
7073,25.0
7075,28.4
7076,37.2
7077,-7.2
7080,10.6
7081,5.4
7084,23.2
7086,26.0
7089,51.9
7091,6.6
7093,22.8
7098,16.8
7100,31.3
7101,25.9
7103,22.1
7104,12.8
7105,33.9
7107,12.8
7108,14.5
7110,39.3
7111,33.9
7115,8.0
7117,8.4
7119,32.2
7121,16.1
7123,18.5
7131,6.7
7133,25.4
7134,4.0
7135,10.8
7137,28.6
7138,16.4
7139,10.9
7140,32.8
7145,5.9
7146,46.8
7149,18.0
7150,7.3
7154,22.6
7156,3.2
7157,-12.4
7159,2.4
7164,19.1
7166,26.3
7167,30.8
7170,44.2
7174,36.3
7175,17.4
7176,7.0
7181,15.4
7182,28.8
7184,39.8
7185,15.9
7191,15.9
7193,21.0
7196,4.7
7198,38.3
7199,27.9
7201,4.6
7202,10.8
7203,29.6
7204,8.2
7205,38.1
7206,18.1
7208,32.7
7209,14.0
7211,4.1
7213,22.0
7214,23.7
7215,5.6
7216,16.2
7217,8.8
7218,13.5
7219,9.9
7220,24.4
7221,13.7
7224,23.6
7225,33.9
7231,4.2
7232,16.3
7233,12.0
7236,-7.2
7237,30.3
7238,10.1
7239,27.8
7241,14.2
7242,37.7
7243,36.9
7244,24.2
7246,14.1
7248,51.9
7252,19.5
7253,23.8
7258,29.9
7259,30.8
7260,31.3
7263,37.4
7269,26.2
7270,22.2
7271,33.9
7275,18.5
7276,30.3
7277,13.4
7279,29.3
7282,21.0
7286,24.1
7287,18.3
7288,16.8
7289,6.7
7290,10.9
7292,35.5
7293,10.8
7296,29.1
7297,20.8
7298,25.8
7299,23.3
7301,17.0
7305,41.6
7306,38.3
7308,16.2
7312,19.8
7313,31.3
7315,38.9
7317,-9.8
7321,39.8
7322,28.4
7324,34.2
7328,49.3
7329,32.4
7330,5.4
7331,12.1
7335,34.5
7336,32.6
7339,5.8
7340,31.3
7342,9.1
7345,3.0
7349,15.7
7351,31.3
7353,20.6
7361,10.2
7362,15.9
7364,34.3
7365,7.5
7367,28.8
7368,28.5
7371,10.1
7372,27.9
7373,8.2
7374,10.0
7376,39.9
7378,17.4
7379,11.8
7382,9.1
7383,23.3
7384,7.1
7385,28.8
7386,11.1
7389,8.2
7391,17.0
7392,32.5
7394,38.6
7396,-4.7
7397,16.3
7398,34.7
7400,26.8
7402,11.8
7405,18.7
7406,36.9
7407,54.5
7408,25.6
7413,28.9
7414,10.5
7415,22.3
7416,14.8
7418,31.3
7419,7.3
7421,7.2
7424,28.1
7425,2.8
7427,5.6
7430,33.9
7434,28.2
7435,2.0
7436,18.1
7441,21.0
7442,9.2
7450,30.9
7453,13.3
7457,8.7
7460,12.6
7461,7.3
7462,38.5
7463,20.8
7464,39.1
7466,4.7
7468,24.5
7469,7.7
7471,25.1
7476,-7.2
7478,32.4
7479,20.4
7481,33.2
7483,34.8
7484,14.5
7485,12.2
7486,15.0
7487,51.9
7488,36.1
7489,4.2
7490,37.2
7492,14.3
7496,23.6
7498,33.9
7499,25.2
7500,4.6
7503,22.9
7510,31.3
7515,10.4
7519,3.1
7520,29.2
7522,18.5
7523,16.9
7528,12.8
7530,11.3
7531,27.6
7532,9.0
7533,8.2
7535,30.8
7536,39.7
7539,29.5
7543,23.6
7545,7.7
7550,6.9
7553,19.1
7555,-2.1
7557,19.7
7558,9.7
7564,4.9
7566,54.5
7568,35.7
7574,21.2
7576,38.5
7577,28.8
7578,38.3
7580,17.3
7581,13.4
7585,20.2
7586,37.2
7589,36.5
7594,18.8
7595,9.9
7598,15.7
7600,11.0
7601,23.6
7603,32.3
7609,14.7
7610,13.9
7611,25.7
7612,13.3
7614,32.3
7615,7.1
7616,12.9
7619,29.7
7623,33.9
7624,3.4
7626,20.0
7628,28.9
7631,29.7
7632,7.0
7634,-7.2
7637,20.9
7641,2.7
7644,26.6
7645,18.5
7647,51.9
7649,31.7
7651,15.9
7652,8.3
7653,19.2
7654,7.2
7655,23.6
7658,31.3
7659,2.1
7660,37.2
7661,33.6
7662,2.5
7665,3.5
7666,28.9
7667,9.3
7669,33.9
7670,21.3
7672,39.3
7675,26.1
7677,32.2
7678,37.9
7679,35.6
7681,18.5
7683,32.2
7685,37.9
7688,29.7
7689,12.7
7691,19.0
7692,10.8
7695,14.0
7696,20.5
7699,24.3
7700,6.0
7703,41.6
7705,37.2
7706,39.3
7707,28.6
7708,23.7
7709,20.4
7710,23.8
7711,22.6
7713,12.6
7715,-9.8
7717,39.9
7718,32.0
7719,11.8
7720,36.7
7723,21.2
7726,3.3
7727,49.3
7730,30.1
7731,35.8
7732,32.9
7735,2.5
7736,12.7
7738,33.9
7741,28.7
7743,27.1
7745,7.4
7746,17.8
7747,35.2
7749,31.3
7753,13.3
7755,6.8
7756,30.3
7757,39.1
7760,18.5
7762,11.8
7763,16.5
7764,7.0
7765,8.0
7766,22.8
7768,28.7
7769,35.5
7770,32.6
7771,4.8
7772,8.2
7775,34.9
7777,6.0
7778,25.4
7780,23.4
7782,14.9
7783,28.8
7786,11.6
7787,2.2
7788,4.8
7792,28.0
7794,-4.7
7796,18.6
7800,28.6
7801,36.9
7804,8.2
7805,54.5
7806,36.6
7808,33.0
7809,38.9
7811,28.7
7813,13.6
7814,20.9
7815,8.6
7817,28.8
7818,35.8
7821,26.2
7825,15.0
7826,29.2
7828,36.5
7830,30.4
7831,28.5
7833,4.4
7835,21.5
7837,21.0
7839,21.0
7840,7.4
7841,38.7
7844,9.8
7845,22.0
7848,22.7
7849,20.4
7850,14.5
7852,13.3
7855,22.8
7857,34.2
7859,4.6
7860,21.8
7863,41.6
7864,16.6
7865,4.9
7866,29.8
7867,28.5
7868,11.7
7870,26.4
7871,17.2
7873,19.8
7874,-9.8
7875,39.2
7876,24.8
7878,39.0
7879,38.8
7880,16.9
7881,30.6
7885,51.9
7886,14.3
7888,18.3
7895,18.9
7897,31.3
7898,12.2
7900,31.5
7902,16.7
7904,35.6
7908,31.3
7911,22.6
7914,38.9
7916,34.5
7918,34.6
7920,18.5
7922,18.9
7923,9.7
7924,32.6
7926,3.9
7927,22.6
7931,10.8
7933,23.8
7935,7.3
7937,5.2
7938,17.2
7940,2.3
7943,44.2
7945,17.9
7946,15.5
7947,14.1
7949,19.1
7953,21.2
7954,-9.8
7955,38.1
7957,14.6
7963,27.3
7965,49.3
7969,21.9
7970,17.1
7971,14.5
7973,30.8
7974,35.8
7976,33.9
7977,15.4
7979,39.7
7981,8.5
7983,19.9
7984,12.4
7985,2.3
7986,16.7
7987,19.0
7988,21.8
7989,28.8
7990,32.8
7991,32.7
7993,34.5
7995,13.1
7997,4.2
8000,15.9
8001,4.7
8003,16.5
8005,11.7
8006,6.0
8008,8.7
8011,5.6
8014,11.8
8015,13.5
8019,4.6
8021,21.5
8022,36.5
8023,25.2
8024,37.5
8025,2.2
8026,32.5
8029,33.7
8032,9.7
8033,-7.2
8034,17.4
8035,22.3
8043,18.2
8044,51.9
8045,21.5
8047,10.9
8051,14.1
8056,31.3
8058,19.9
8059,3.6
8061,4.4
8062,2.8
8064,11.3
8066,9.4
8067,35.5
8068,33.9
8069,13.3
8076,37.6
8079,18.5
8082,7.8
8083,10.1
8084,26.4
8086,4.3
8089,3.7
8090,13.3
8091,28.4
8093,29.8
8094,22.5
8096,30.0
8099,10.5
8101,41.6
8103,39.4
8104,31.5
8105,12.6
8109,4.6
8111,12.2
8113,24.0
8114,-9.8
8116,24.2
8117,18.5
8118,4.5
8119,25.1
8120,24.7
8121,35.0
8122,36.9
8125,51.9
8127,36.0
8128,35.4
8131,7.1
8133,12.4
8134,39.6
8135,23.1
8136,31.3
8137,6.2
8139,15.8
8143,25.2
8147,31.3
8151,22.0
8152,13.4
8153,36.7
8154,19.6
8155,15.4
8159,15.9
8162,31.3
8163,30.6
8164,20.7
8165,39.5
8166,39.0
8167,2.5
8169,14.2
8170,8.2
8171,26.3
8172,38.2
8176,23.8
8177,27.7
8179,35.8
8181,31.3
8183,24.2
8186,25.9
8187,22.8
8189,7.3
8193,-4.7
8198,39.3
8199,2.0
8202,29.3
8204,51.9
8206,11.5
8207,7.6
8208,35.1
8209,34.6
8211,32.5
8212,38.8
8215,31.3
8217,15.4
8222,22.2
8223,39.0
8224,7.3
8225,21.8
8226,36.5
8228,25.2
8234,35.1
8238,21.0
8239,19.8
8241,34.1
8243,7.8
8244,10.6
8245,23.4
8246,18.7
8249,19.5
8250,13.3
8251,12.9
8255,18.6
8257,15.8
8259,15.9
8261,39.1
8262,38.0
8263,26.9
8266,4.5
8267,36.2
8272,-9.8
8273,30.0
8275,39.8
8281,28.1
8283,29.4
8284,51.9
8288,9.7
8289,21.0
8293,30.7
8294,6.9
8295,31.3
8296,25.0
8297,31.9
8300,21.8
8302,17.1
8304,21.5
8306,31.3
8307,37.6
8308,6.0
8312,18.0
8313,11.3
8316,31.1
8318,18.5
8319,8.4
8321,35.9
8323,3.2
8324,26.4
8328,29.5
8330,10.8
8331,16.3
8332,25.7
8334,12.6
8335,19.5
8339,33.9
8341,46.8
8342,13.1
8343,21.6
8344,5.7
8345,39.3
8347,9.3
8349,2.1
8351,17.3
8352,-9.8
8354,34.1
8356,10.1
8359,38.7
8361,36.8
8362,5.3
8363,5.5
8364,49.3
8367,32.9
8368,37.1
8371,32.3
8373,5.4
8375,31.3
8376,22.6
8378,7.7
8382,31.6
8383,35.7
8385,33.3
8387,28.8
8388,33.2
8389,23.4
8390,17.7
8391,22.9
8395,33.8
8396,37.5
8398,15.9
8400,37.3
8403,11.0
8407,19.5
8410,5.6
8411,7.5
8415,26.8
8417,6.5
8418,25.7
8420,36.5
8421,37.9
8422,3.0
8423,7.8
8424,8.5
8427,19.9
8431,-7.2
8441,33.4
8442,51.9
8444,4.2
8447,28.9
8448,32.3
8449,39.2
8450,14.0
8451,12.4
8453,32.4
8454,22.6
8455,31.3
8456,26.2
8457,4.1
8460,35.8
8462,12.7
8463,19.7
8466,33.9
8467,19.0
8468,14.3
8473,11.9
8474,25.8
8477,21.0
8478,18.9
8479,20.9
8480,13.9
8481,24.5
8482,4.9
8484,33.1
8485,34.9
8486,22.5
8487,28.0
8488,10.8
8489,34.0
8490,30.5
8492,19.6
8493,4.5
8495,24.2
8497,14.2
8500,44.2
8502,24.9
8503,23.2
8504,13.5
8509,21.4
8510,25.1
8511,29.1
8512,-9.8
8513,16.8
8514,17.4
8515,22.9
8520,21.2
8521,22.9
8523,51.9
8524,18.8
8525,9.8
8526,2.9
8528,7.9
8530,2.6
8533,20.2
8534,5.0
8535,31.3
8538,11.0
8540,17.2
8541,6.1
8542,6.4
8543,26.0
8544,27.4
8545,3.1
8546,28.8
8549,34.3
8553,30.1
8554,22.8
8555,32.7
8556,5.8
8557,15.9
8564,37.3
8566,26.6
8568,8.2
8570,22.5
8572,26.5
8576,34.2
8577,31.8
8579,5.7
8580,26.2
8582,31.1
8584,33.0
8586,3.0
8588,33.4
8591,-4.7
8595,2.3
8596,17.3
8599,29.2
8600,34.3
8601,24.6
8602,54.5
8606,35.2
8610,3.8
8612,24.3
8613,31.3
8616,10.3
8617,31.6
8619,24.4
8620,7.5
8621,23.0
8624,36.0
8625,36.5
8628,10.5
8629,36.4
8633,21.4
8634,37.3
8635,18.6
8636,18.5
8638,13.5
8639,36.3
8640,37.0
8641,11.2
8642,14.0
8645,18.0
8647,14.5
8648,13.3
8651,21.4
8652,17.7
8655,21.7
8659,39.1
8660,29.7
8662,10.6
8665,39.0
8667,14.9
8668,28.2
8671,-7.2
8674,2.5
8675,20.5
8677,11.0
8680,5.9
8682,51.9
8685,8.5
8688,32.6
8689,36.2
8691,10.3
8693,31.3
8695,14.3
8696,14.9
8699,3.6
8700,34.1
8704,14.1
8705,31.3
8709,27.7
8711,3.2
8712,6.8
8714,5.6
8716,20.2
8717,18.5
8718,24.9
8719,35.3
8722,10.5
8723,12.4
8728,8.2
8729,33.2
8730,12.0
8731,13.8
8733,39.3
8738,21.0
8740,22.4
8743,6.0
8744,4.9
8745,4.4
8746,35.7
8748,38.1
8750,-4.7
8753,26.8
8756,28.7
8761,51.9
8764,30.6
8765,37.6
8770,39.2
8772,28.8
8773,32.1
8775,34.3
8777,9.5
8782,22.4
8783,18.9
8784,36.5
8785,14.3
8787,30.5
8789,33.1
8792,31.5
8795,24.9
8796,26.2
8797,30.3
8799,24.1
8801,18.6
8802,35.2
8805,25.5
8806,22.4
8807,15.9
8808,35.2
8809,7.4
8812,26.3
8813,13.5
8815,31.6
8818,33.9
8823,12.1
8829,-7.2
8830,18.2
8832,13.1
8835,17.7
8836,20.0
8839,32.8
8840,2.9
8841,51.9
8850,30.9
8851,10.8
8853,31.3
8854,31.3
8855,29.6
8856,18.2
8860,13.3
8862,2.8
8864,33.9
8865,18.4
8866,37.6
8869,25.3
8870,20.2
8871,30.8
8873,21.2
8874,9.9
8876,21.0
8879,6.5
8881,24.1
8886,20.9
8887,13.3
8888,19.2
8889,36.8
8891,24.9
8893,28.7
8896,7.6
8898,41.6
8900,18.7
8902,6.0
8904,17.0
8907,23.3
8909,-9.8
8910,30.2
8913,29.0
8914,7.2
8916,33.5
8918,14.6
8920,16.0
8922,51.9
8923,28.8
8927,13.6
8929,8.2
8930,33.2
8933,33.9
8934,10.6
8936,13.4
8938,16.3
8939,39.7
8940,16.2
8941,22.9
8942,25.8
8944,31.3
8947,11.7
8948,11.4
8951,18.4
8952,16.8
8953,38.0
8954,36.6
8955,18.5
8960,13.4
8961,32.2
8963,34.2
8967,8.2
8969,28.9
8970,16.8
8972,29.6
8974,15.1
8975,26.0
8976,15.6
8977,12.8
8978,28.8
8979,5.1
8981,25.8
8983,12.2
8984,37.4
8988,37.3
8989,-7.2
8992,6.4
8993,4.4
9000,54.5
9003,2.1
9004,2.5
9005,8.1
9007,8.3
9010,21.5
9012,28.8
9014,5.6
9018,23.5
9021,4.7
9023,36.5
9025,33.7
9026,12.9
9034,21.0
9040,39.9
9041,10.7
9042,31.0
9047,13.3
9052,33.8
9053,27.4
9055,16.7
9056,35.8
9058,39.1
9061,28.8
9066,11.7
9067,23.4
9068,28.4
9069,-9.8
9072,32.8
9073,12.9
9077,30.0
9080,51.9
9081,6.9
9082,32.8
9086,34.7
9087,22.4
9089,13.0
9090,26.2
9092,31.3
9093,11.2
9094,9.6
9095,37.5
9097,32.9
9099,18.1
9101,34.4
9102,15.2
9103,33.9
9104,37.4
9106,3.1
9107,29.6
9108,24.2
9109,28.9
9114,9.1
9115,18.5
9119,23.2
9120,9.2
9123,16.3
9124,19.5
9125,24.8
9126,10.8
9128,16.3
9129,17.8
9131,18.5
9132,5.0
9135,7.3
9136,13.9
9137,17.0
9138,46.8
9140,11.1
9142,8.6
9149,-9.8
9153,38.1
9154,3.2
9158,32.2
9159,33.9
9160,49.3
9161,7.1
9164,28.6
9165,10.4
9168,25.3
9169,22.7
9170,4.8
9171,31.3
9172,39.6
9173,29.6
9175,38.9
9176,23.0
9177,35.9
9183,20.6
9184,28.8
9185,25.5
9186,2.6
9190,20.0
9193,19.2
9195,13.3
9201,4.7
9202,7.7
9204,13.6
9205,32.9
9206,8.2
9207,6.6
9208,13.2
9209,25.4
9210,10.0
9211,31.5
9212,15.3
9213,19.4
9217,33.9
9221,34.4
9226,36.5
9228,-7.2
9231,18.5
9232,13.7
9234,35.0
9239,51.9
9241,16.3
9242,4.0
9244,22.9
9245,11.4
9250,30.6
9251,31.3
9252,16.4
9253,4.5
9255,24.2
9256,30.5
9263,33.9
9265,29.9
9266,26.4
9267,36.0
9268,26.1
9270,15.5
9271,30.8
9273,26.3
9274,21.0
9275,20.5
9276,18.7
9279,34.3
9280,12.0
9281,5.5
9283,25.1
9284,3.0
9285,13.3
9288,37.2
9291,38.8
9295,36.9
9296,44.2
9299,22.8
9300,2.1
9302,8.8
9304,32.5
9305,15.0
9308,-9.8
9312,29.7
9316,39.2
9317,33.6
9318,31.7
9319,12.3
9320,51.9
9322,13.0
9323,28.0
9324,35.3
9325,17.2
9326,7.3
9331,33.9
9332,22.3
9338,22.4
9339,23.8
9340,13.4
9341,30.7
9342,31.3
9344,38.4
9347,4.5
9351,37.2
9352,12.5
9353,29.8
9354,15.9
9356,28.4
9359,16.2
9360,20.3
9362,24.0
9364,9.5
9365,10.8
9366,15.6
9367,6.3
9369,28.5
9374,24.4
9375,22.0
9376,19.7
9377,49.3
9382,33.3
9384,10.1
9386,7.1
9387,28.2
9389,-7.2
9390,13.0
9395,24.2
9397,12.8
9398,18.8
9399,26.7
9400,49.3
9401,18.1
9403,21.5
9407,4.0
9408,22.1
9411,31.3
9412,16.2
9415,4.0
9417,5.8
9418,28.5
9419,20.3
9421,11.2
9422,28.8
9423,13.9
9424,24.1
9425,14.3
9433,37.7
9434,13.3
9436,11.5
9437,18.5
9441,22.3
9442,8.5
9443,5.9
9445,32.4
9446,5.6
9447,20.5
9449,22.8
9452,22.9
9453,5.7
9455,25.4
9456,36.5
9460,17.4
9462,21.9
9467,-7.2
9469,18.1
9471,6.9
9473,30.9
9477,33.9
9478,17.4
9479,49.3
9482,22.8
9483,33.8
9486,7.4
9487,18.3
9489,24.0
9490,33.9
9492,9.5
9494,37.1
9495,29.4
9496,16.1
9497,12.0
9498,28.9
9500,9.5
9501,31.3
9503,17.4
9504,4.0
9506,9.4
9513,18.5
9516,9.0
9517,21.1
9518,35.2
9519,39.1
9521,28.3
9524,14.7
9525,8.2
9526,28.4
9527,27.7
9529,36.8
9530,7.2
9531,13.0
9532,5.6
9535,21.0
9537,13.0
9540,7.8
9541,17.3
9543,20.3
9544,5.9
9546,-2.1
9549,4.9
9551,14.2
9552,24.4
9554,7.4
9555,5.6
9556,34.7
9558,54.5
9562,18.1
9565,11.5
9568,34.3
9569,28.8
9571,21.7
9572,6.9
9573,34.4
9574,12.6
9575,3.2
9578,14.1
9581,36.5
9583,35.0
9584,24.3
9586,9.0
9590,8.7
9591,16.2
9592,23.6
9596,7.3
9599,3.0
9600,38.5
9601,30.1
9602,30.8
9604,13.3
9606,34.3
9610,6.3
9611,9.9
9612,22.3
9613,9.9
9614,23.9
9615,33.9
9617,9.3
9619,26.4
9620,15.8
9624,21.6
9626,-4.7
9628,38.3
9633,6.4
9635,10.2
9637,51.9
9640,11.2
9642,24.7
9643,14.8
9644,34.7
9648,27.8
9650,28.8
9654,14.7
9657,10.2
9661,33.9
9662,9.1
9663,17.2
9666,31.4
9667,13.3
9668,18.8
9669,32.1
9671,8.6
9672,21.0
9676,24.2
9677,18.3
9681,9.3
9682,8.6
9683,13.3
9684,4.1
9685,32.8
9687,38.1
9691,11.4
9693,30.5
9695,41.6
9699,26.2
9700,20.0
9703,36.4
9705,33.2
9706,-9.8
9707,12.5
9709,23.8
9710,26.2
9713,15.7
9715,25.6
9716,33.6
9718,49.3
9725,15.5
9727,33.7
9730,33.9
9735,5.5
9736,28.2
9737,39.9
9741,31.3
9742,39.3
9744,17.4
9750,32.9
9752,15.9
9754,23.4
9755,4.5
9761,20.5
9762,36.1
9763,8.2
9766,38.5
9767,16.0
9768,11.4
9769,26.3
9770,4.3
9771,36.8
9772,17.8
9773,6.0
9774,28.8
9775,20.0
9776,39.7
9778,10.3
9783,17.4
9784,24.1
9785,16.1
9786,-4.7
9791,13.0
9792,18.8
9797,54.5
9798,39.7
9800,12.3
9801,31.1
9802,18.5
9803,14.1
9804,10.9
9805,9.9
9806,24.1
9808,31.3
9810,28.2
9813,37.2
9818,6.8
9820,36.5
9821,26.1
9822,31.1
9823,23.0
9824,14.9
9826,11.5
9827,13.0
9828,35.3
9829,28.9
9831,21.0
9836,39.6
9838,20.8
9843,13.3
9847,24.5
9850,13.3
9852,14.9
9853,5.1
9854,39.1
9855,26.4
9856,34.8
9858,28.5
9860,17.9
9861,9.5
9863,25.8
9865,37.4
9866,-7.2
9868,14.3
9872,10.1
9873,27.1
9875,17.6
9877,51.9
9878,14.5
9879,30.5
9880,11.4
9881,24.0
9882,17.7
9883,5.8
9884,29.8
9885,7.6
9887,23.5
9888,33.9
9890,24.4
9894,11.0
9896,25.1
9897,35.8
9898,22.8
9900,31.3
9901,27.0
9902,17.8
9903,15.5
9904,10.5
9906,38.0
9909,5.2
9911,17.0
9912,18.5
9913,31.7
9915,26.9
9918,28.4
9919,5.4
9920,11.3
9923,10.8
9926,20.9
9927,9.9
9928,7.0
9931,4.2
9932,28.3
9934,46.8
9935,31.5
9939,31.4
9940,37.8
9941,12.4
9943,25.3
9945,33.0
9946,-12.4
9948,38.4
9951,36.3
9952,2.7
9953,36.1
9955,16.7
9958,44.2
9959,12.5
9962,9.9
9963,7.0
9964,6.7
9965,12.8
9969,28.8
9971,31.8
9972,24.5
9973,13.3
9975,31.4
9976,17.1
9978,14.3
9979,12.6
9981,21.0
9986,7.5
9988,24.0
9991,33.6
9993,8.2
9996,8.2
9997,34.0
9998,13.3
10001,30.5
10003,8.2
10004,9.8
10005,33.0
10007,24.7
10008,19.5
10012,30.4
10014,51.9
10017,24.2
10020,32.6
10021,26.0
10023,13.4
10026,10.2
10027,23.6
10028,33.2
10029,12.0
10031,34.2
10032,5.0
10033,27.4
10034,8.9
10037,17.7
10039,33.9
10044,36.6
10045,29.3
10046,23.6
10047,5.4
10051,17.6
10052,10.8
10053,39.6
10054,3.0
10056,27.9
10058,22.9
10059,10.3
10062,10.4
10063,6.2
10064,-4.7
10065,6.0
10066,16.8
10067,8.5
10068,31.8
10069,23.7
10072,6.3
10073,31.5
10074,11.4
10075,24.9
10076,29.8
10077,49.3
10079,3.3
10080,30.7
10081,9.4
10086,10.8
10087,38.9
10089,28.8
10090,10.2
10091,36.9
10094,17.9
10096,20.3
10097,32.4
10099,38.4
10101,13.3
10103,12.4
10104,32.2
10105,12.7
10108,33.4
10109,22.7
10110,28.3
10111,5.4
10115,51.9
10118,4.4
10120,4.7
10122,18.5
10124,24.8
10127,26.2
10128,3.4
10129,39.8
10131,36.5
10132,5.5
10135,17.2
10137,39.1
10138,24.0
10139,31.3
10140,29.0
10141,27.2
10142,5.2
10143,2.9
10149,34.2
10151,10.8
10164,-4.7
10167,26.9
10168,37.1
10169,36.0
10170,3.5
10173,22.1
10174,33.6
10175,17.9
10176,17.8
10177,49.3
10178,6.5
10179,36.8
10180,40.0
10182,30.4
10183,4.7
10185,25.6
10186,3.5
10187,13.1
10189,28.8
10190,6.6
10192,34.1
10195,9.6
10196,21.1
10197,30.2
10198,14.5
10200,23.0
10201,35.7
10202,10.8
10203,39.9
10205,10.0
10206,9.5
10209,18.2
10211,28.4
10212,23.5
10214,54.5
10217,27.5
10218,20.5
10224,37.7
10226,28.8
10227,24.5
10228,9.8
10229,22.7
10231,4.2
10232,14.3
10233,20.3
10235,34.5
10237,35.6
10238,28.8
10243,32.0
10244,6.4
10245,35.3
10246,31.7
10247,5.7
10249,27.9
10252,8.2
10253,37.2
10254,33.0
10259,39.9
10263,-2.1
10264,13.5
10265,19.6
10266,35.0
10267,8.1
10269,37.4
10270,23.1
10271,26.9
10274,13.0
10275,51.9
10276,6.5
10277,33.9
10282,19.5
10283,26.0
10284,14.1
10286,36.5
10287,37.5
10288,31.3
10289,4.9
10294,37.3
10297,10.1
10298,18.6
10300,15.9
10301,34.3
10304,16.0
10306,16.5
10307,34.7
10308,9.1
10309,4.7
10310,23.1
10312,38.6
10313,46.8
10316,3.4
10318,26.2
10321,13.5
10325,38.9
10326,18.5
10327,27.0
10329,16.4
10330,31.7
10333,40.0
10336,8.4
10337,26.4
10338,36.5
10339,6.5
10340,12.8
10343,3.8
10347,29.0
10348,5.1
10350,13.3
10353,14.7
10354,14.6
10356,17.6
10358,27.2
10360,38.7
10362,-2.1
10363,9.1
10366,4.5
10368,22.8
10369,32.9
10373,14.8
10374,39.9
10376,51.9
10377,8.7
10380,26.9
10382,30.1
10383,36.0
10387,2.1
10388,28.8
10389,26.1
10391,12.8
10392,29.4
10394,4.5
10398,28.9
10399,24.2
10400,13.3
10406,24.7
10407,25.3
10408,21.8
10409,36.8
10410,15.6
10412,16.8
10413,49.3
10414,12.7
10422,23.7
10423,38.1
10425,23.6
10428,10.4
10430,4.2
10431,16.0
10433,24.5
10434,25.9
10437,31.3
10438,29.8
10439,18.4
10440,15.2
10445,27.2
10447,17.3
10450,13.3
10451,15.9
10458,31.6
10461,13.3
10463,-4.7
10464,7.5
10467,39.6
10471,19.0
10472,29.5
10474,19.3
10475,49.3
10476,16.8
10477,7.1
10479,26.8
10480,17.4
10482,3.0
10484,16.5
10485,2.3
10487,28.8
10489,2.9
10492,3.6
10493,13.2
10495,40.0
10496,37.0
10499,6.2
10500,10.8
10501,10.5
10502,39.5
10505,16.4
10507,26.6
10509,38.5
10511,34.7
10512,11.9
10513,51.9
10514,31.9
10515,21.5
10516,31.6
10520,5.9
10523,2.2
10525,28.8
10529,38.8
10530,39.3
10532,17.7
10536,22.6
10537,28.8
10538,4.2
10540,12.3
10541,38.9
10543,30.9
10544,20.5
10545,22.4
10547,2.3
10548,17.5
10549,9.3
10550,10.8
10552,29.4
10557,6.6
10559,35.1
10562,-4.7
10567,27.1
10569,7.3
10570,7.4
10572,7.6
10575,46.8
10576,8.6
10583,7.9
10586,2.5
10588,28.8
10589,12.6
10592,14.4
10594,7.9
10596,9.3
10597,40.0
10600,10.8
10602,24.5
10603,13.3
10604,2.0
10605,5.5
10606,29.6
10607,23.1
10609,19.2
10611,32.5
10612,54.5
10614,10.7
10617,35.8
10618,5.9
10620,6.4
10621,11.4
10622,27.3
10625,28.8
10626,33.4
10627,37.9
10628,13.9
10630,14.1
10631,31.6
10632,18.8
10634,7.5
10635,31.1
10637,28.8
10640,22.2
10641,7.0
10644,33.4
10645,32.1
10646,18.6
10648,6.5
10649,28.6
10650,8.2
10651,27.3
10652,38.3
10655,23.1
10657,3.6
10658,30.8
10660,21.9
10661,-2.1
10663,3.1
10667,37.2
10668,2.7
10670,4.8
10671,36.0
10672,5.9
10673,12.9
10674,51.9
10675,34.9
10677,37.8
10680,11.2
10686,28.8
10689,4.9
10691,14.7
10692,30.8
10693,31.9
10694,21.4
10695,36.4
10698,15.9
10700,37.3
10709,12.0
10710,19.8
10712,46.8
10713,17.6
10714,19.3
10715,29.8
10716,25.9
10717,22.9
10718,8.7
10719,26.4
10721,27.6
10723,37.2
10724,18.5
10727,10.5
10730,16.6
10732,30.7
10733,20.9
10734,36.7
10735,26.4
10736,33.9
10737,38.8
10738,27.6
10739,10.6
10740,23.2
10741,31.4
10742,27.4
10743,5.7
10747,33.3
10748,13.3
10754,25.6
10756,36.4
10758,18.9
10759,37.4
10760,36.3
10761,-2.1
10765,33.2
10768,17.3
10770,23.9
10773,49.3
10775,14.1
10780,14.6
10783,14.3
10784,15.1
10785,20.7
10786,31.3
10787,16.1
10788,23.7
10794,28.5
10795,2.8
10796,30.9
10797,9.1
10799,15.9
10800,36.0
10804,2.0
10806,17.9
10807,38.7
10808,23.5
10811,49.3
10815,3.9
10816,13.3
10817,36.0
10818,21.8
10820,32.4
10822,18.3
10823,23.6
10825,16.3
10826,29.7
10827,16.8
10831,18.0
10832,11.1
10833,19.2
10834,12.4
10835,33.9
10836,18.9
10839,3.6
10840,17.2
10844,7.5
10846,17.7
10849,13.3
10850,37.2
10852,17.9
10854,23.3
10857,13.4
10858,36.2
10859,4.2
10861,-4.7
10864,15.6
10865,26.1
10866,21.5
10869,9.4
10871,29.5
10872,25.4
10873,49.3
10875,8.1
10881,25.3
10886,28.8
10887,17.1
10889,12.2
10890,19.5
10891,33.8
10893,34.7
10898,13.3
10901,8.9
10903,32.5
10905,32.8
10908,22.2
10909,27.7
10911,51.9
10912,11.1
10913,7.4
10914,11.5
10917,10.1
10918,21.5
10922,31.1
10924,28.8
10926,12.4
10930,19.3
10934,6.8
10935,6.2
10936,31.3
10937,14.6
10941,11.4
10944,35.2
10947,24.8
10948,10.8
10952,14.4
10958,14.8
10959,19.4
10960,-4.7
10961,34.1
10962,24.2
10963,3.1
10964,8.6
10965,21.0
10968,32.7
10973,46.8
10977,2.6
10978,12.5
10979,16.0
10981,4.3
10982,39.9
10983,10.1
10984,27.0
10985,25.6
10986,26.2
10987,14.8
10990,24.8
10991,15.6
10992,37.4
10993,34.2
10995,14.2
10998,13.3
11001,22.4
11004,32.8
11006,22.0
11007,10.6
11008,12.6
11010,36.6
11011,54.5
11012,7.3
11014,18.5
11015,9.0
11017,35.5
11018,25.5
11022,5.4
11023,26.2
11026,8.0
11028,20.4
11031,38.1
11035,28.8
11036,24.8
11039,33.5
11040,3.0
11046,5.3
11048,8.2
11053,19.6
11054,37.2
11055,8.7
11056,6.5
11057,28.0
11058,24.4
11059,36.2
11060,-2.1
11066,16.5
11069,10.0
11070,34.6
11072,51.9
11074,33.7
11076,17.1
11078,39.5
11079,33.1
11081,30.6
11084,31.3
11086,38.9
11087,6.6
11088,10.8
11090,8.0
11092,3.7
11094,22.2
11095,37.6
11096,15.6
11097,15.9
11102,9.0
11103,3.7
11107,5.6
11109,24.2
11110,46.8
11113,6.0
11115,11.1
11116,11.3
11118,16.2
11122,18.5
11123,10.6
11124,25.0
11127,5.2
11128,4.3
11130,4.2
11131,2.8
11132,28.9
11133,26.6
11134,36.5
11137,18.4
11143,16.3
11146,9.0
11147,13.3
11148,14.9
11149,29.2
11150,27.7
11152,28.6
11156,4.4
11159,-2.1
11161,30.1
11163,15.4
11165,24.8
11167,2.1
11171,51.9
11174,19.1
11175,39.9
11176,32.9
11179,7.4
11181,2.0
11182,32.2
11185,31.3
11186,15.1
11188,32.5
11189,10.3
11190,30.2
11192,5.1
11193,16.6
11197,15.9
11198,25.8
11199,19.7
11200,31.7
11201,31.2
11207,12.8
11208,16.3
11209,49.3
11210,18.8
11211,12.9
11212,11.3
11213,2.5
11214,30.1
11218,25.4
11222,23.6
11223,37.9
11226,15.4
11230,27.8
11234,33.9
11236,28.6
11240,6.0
11241,5.1
11246,19.2
11247,13.3
11251,21.0
11252,38.8
11256,29.0
11257,14.9
11259,-4.7
11260,15.1
11262,27.0
11266,26.6
11269,30.9
11270,4.5
11272,49.3
11275,3.0
11276,23.9
11278,23.0
11282,33.2
11283,26.6
11284,31.3
11285,20.1
11286,4.1
11287,27.2
11288,32.3
11289,25.7
11290,7.9
11292,11.3
11293,27.7
11296,13.3
11297,16.9
11298,25.8
11299,27.8
11304,18.8
11309,16.7
11310,51.9
11312,33.4
11315,26.0
11316,9.8
11317,11.4
11318,7.7
11319,28.0
11320,6.7
11321,15.5
11322,28.8
11324,7.9
11325,35.0
11326,16.4
11328,26.2
11332,29.4
11333,26.6
11334,31.3
11335,16.0
11338,10.4
11339,20.9
11343,5.2
11346,10.8
11349,34.1
11351,25.0
11354,9.3
11356,3.5
11359,-7.2
11360,37.7
11364,11.3
11366,33.5
11368,31.4
11371,49.3
11373,11.3
11374,30.6
11376,23.5
11377,28.5
11380,35.2
11381,28.7
11382,4.8
11383,7.4
11384,26.2
11385,18.6
11387,24.8
11388,25.8
11389,34.4
11392,16.4
11397,10.8
11403,9.9
11404,38.9
11409,51.9
11414,30.7
11415,22.3
11416,11.8
11418,20.7
11421,26.2
11423,23.0
11427,32.5
11430,20.9
11433,31.3
11434,15.0
11436,4.7
11437,39.4
11440,36.0
11443,36.9
11444,7.3
11445,5.6
11446,31.6
11447,8.2
11448,27.4
11451,3.2
11452,16.7
11454,15.4
11455,28.6
11456,16.9
11457,9.0
11458,3.0
11459,18.9
11461,32.1
11463,10.4
11464,35.7
11465,4.4
11467,7.5
11469,51.9
11477,9.0
11479,12.6
11482,31.3
11483,37.8
11484,10.4
11487,32.7
11490,11.5
11491,38.1
11493,15.9
11494,23.6
11496,16.9
11497,37.4
11502,16.7
11503,19.8
11505,17.6
11507,23.6
11513,22.1
11514,21.4
11519,24.4
11520,-12.4
11521,8.1
11522,12.6
11523,32.5
11524,12.9
11526,16.0
11528,6.6
11530,13.7
11531,25.8
11533,36.5
11534,14.0
11536,38.4
11540,24.0
11542,38.9
11543,17.9
11545,13.3
11546,16.6
11552,37.3
11554,34.6
11556,7.4
11557,-2.1
11560,27.5
11562,34.9
11566,31.1
11568,30.5
11569,35.3
11570,51.9
11571,29.0
11572,8.8
11573,37.9
11578,30.1
11581,28.7
11582,25.3
11583,31.3
11584,24.2
11589,10.2
11590,28.0
11592,12.2
11593,7.3
11595,15.9
11596,7.0
11599,6.2
11601,18.6
11602,31.7
11603,16.1
11604,2.2
11605,7.6
11608,49.3
11609,9.4
11614,35.9
11615,19.5
11616,39.4
11620,23.6
11621,28.2
11631,34.5
11632,33.9
11634,27.4
11636,28.6
11637,12.9
11638,15.1
11642,20.7
11643,23.6
11644,34.6
11645,10.8
11646,7.2
11648,6.4
11650,21.8
11652,28.5
11654,4.0
11657,2.9
11658,-2.1
11664,10.7
11666,25.2
11668,7.1
11670,49.3
11672,13.1
11673,23.1
11676,34.0
11678,37.9
11681,38.0
11682,26.2
11685,31.4
11688,9.3
11689,26.5
11692,35.5
11695,13.3
11697,28.3
11698,37.2
11699,28.6
11700,12.2
11702,4.4
11703,37.1
11706,20.6
11708,51.9
11709,31.1
11710,18.9
11711,17.0
11712,17.5
11713,10.3
11714,7.3
11717,34.8
11719,39.2
11720,28.8
11726,21.8
11727,9.6
11732,33.9
11735,6.3
11736,39.6
11737,35.6
11738,33.4
11739,3.0
11740,38.1
11741,3.9
11742,35.7
11744,27.7
11745,10.8
11746,13.1
11747,36.9
11754,6.8
11755,33.1
11756,31.4
11757,-7.2
11762,35.0
11763,9.7
11766,39.7
11769,46.8
11772,10.1
11773,34.3
11774,27.7
11776,16.5
11781,38.0
11783,28.8
11788,21.4
11790,37.7
11791,28.3
11795,10.8
11796,25.0
11797,21.0
11799,30.1
11800,5.3
11801,9.9
11802,2.3
11805,14.8
11807,51.9
11808,27.7
11809,25.1
11810,12.9
11812,18.5
11814,36.8
11815,7.1
11817,23.4
11818,16.1
11819,17.9
11820,26.2
11823,23.6
11826,33.7
11827,6.3
11832,28.8
11833,9.1
11834,11.9
11835,16.0
11838,35.0
11840,36.5
11843,37.4
11845,10.8
11847,16.2
11848,33.3
11851,38.8
11852,35.2
11854,4.9
11857,-7.2
11858,36.2
11859,13.1
11860,6.2
11863,15.1
11864,36.2
11866,29.2
11867,36.0
11868,26.4
11869,22.6
11870,46.8
11874,3.9
11875,38.2
11878,29.9
11880,23.9
11881,30.8
11882,26.2
11884,29.9
11885,12.9
11887,26.2
11888,4.3
11889,4.3
11894,10.8
11897,11.2
11898,15.2
11901,16.6
11902,21.3
11903,4.9
11905,10.1
11906,14.5
11908,54.5
11918,21.9
11919,26.9
11920,31.3
11921,12.4
11925,26.5
11927,20.1
11928,19.4
11929,15.4
11932,26.2
11933,3.9
11938,3.6
11939,26.3
11940,5.9
11942,17.3
11944,15.9
11945,37.4
11953,16.5
11955,19.0
11956,20.5
11957,-7.2
11959,33.0
11964,22.9
11965,3.4
11969,46.8
11970,38.6
11971,25.1
11976,7.9
11977,19.6
11978,36.7
11982,23.6
11984,5.9
11985,36.1
11986,22.0
11987,23.2
11989,28.7
11992,20.4
11993,5.9
11994,5.5
11995,8.2
11996,15.9
11998,37.3
12000,18.1
12002,32.4
12003,39.2
12004,6.3
12005,23.6
12006,51.9
12009,19.9
12012,33.6
12014,18.7
12017,24.0
12018,21.0
12020,29.1
12021,9.7
12023,9.6
12024,17.7
12025,20.1
12028,3.6
12029,14.2
12030,33.9
12031,3.1
12033,38.8
12034,22.4
12036,16.2
12038,11.7
12039,26.5
12043,4.5
12044,13.3
12045,15.2
12046,14.4
12051,28.8
12052,22.7
12053,11.4
12054,38.2
12055,39.5
12056,-4.7
12057,24.0
12058,24.5
12059,30.9
12065,8.2
12067,8.1
12068,49.3
12069,17.2
12073,7.4
12077,19.8
12080,31.5
12081,26.2
12083,20.3
12085,23.3
12087,4.5
12088,14.5
12089,32.9
12090,37.3
12093,13.3
12095,18.3
12097,20.4
12098,35.0
12100,2.2
12101,35.2
12102,9.7
12105,7.8
12106,51.9
12110,21.6
12111,9.8
12112,36.2
12116,19.6
12118,20.2
12119,26.2
12123,16.6
12125,24.5
12127,32.8
12128,10.4
12130,14.0
12131,31.3
12134,26.2
12141,32.8
12143,10.8
12144,29.0
12147,8.3
12149,6.8
12150,21.7
12153,37.8
12155,-4.7
12157,18.2
12159,38.8
12160,2.2
12163,22.7
12167,33.1
12168,49.3
12169,37.8
12171,2.3
12174,36.8
12179,37.1
12180,6.8
12181,26.2
12185,29.4
12186,2.3
12193,10.8
12194,19.4
12196,33.5
12198,23.1
12200,29.2
12203,8.3
12204,20.4
12206,54.5
12207,20.1
12210,19.3
12211,30.4
12215,30.7
12216,6.6
12218,28.8
12224,30.9
12225,13.1
12229,14.1
12230,31.3
12233,28.3
12238,20.3
12239,21.2
12240,16.8
12243,8.2
12245,2.0
12246,24.9
12247,2.3
12249,36.5
12250,7.6
12252,3.8
12255,0.5
12256,7.4
12257,34.6
12258,7.4
12259,13.2
12261,13.0
12265,10.2
12266,54.5
12268,27.8
12270,4.0
12271,30.1
12273,20.4
12275,33.2
12276,27.2
12278,31.3
12279,39.4
12280,5.6
12283,25.5
12289,37.3
12291,23.6
12295,29.0
12297,18.2
12301,6.6
12303,26.2
12305,24.0
12306,26.0
12307,6.1
12312,15.9
12313,25.2
12314,15.3
12316,-9.8
12318,17.2
12320,31.2
12325,17.5
12328,41.6
12331,3.5
12332,25.2
12336,27.9
12339,21.9
12341,21.0
12342,10.9
12343,12.9
12344,12.1
12346,2.7
12347,29.1
12348,7.8
12349,37.6
12351,33.9
12353,5.6
12358,37.9
12362,39.5
12363,16.4
12364,51.9
12368,29.1
12369,9.5
12373,19.4
12374,9.6
12376,28.4
12377,6.8
12378,28.8
12383,5.4
12386,4.9
12387,11.8
12388,39.4
12390,31.3
12393,28.7
12394,19.4
12396,15.8
12397,12.8
12398,27.5
12399,18.0
12400,31.0
12402,10.8
12406,14.7
12413,32.0
12414,-7.2
12415,24.3
12417,5.1
12421,37.9
12422,3.4
12423,28.7
12425,3.7
12427,46.8
12428,17.1
12434,33.5
12436,7.8
12440,26.2
12443,2.3
12444,21.1
12447,7.1
12449,15.2
12450,23.7
12451,9.9
12452,10.8
12454,11.9
12456,19.8
12459,14.8
12462,19.3
12464,23.1
12465,54.5
12466,34.4
12467,10.4
12468,13.0
12469,21.0
12471,9.9
12474,20.7
12476,5.4
12477,31.3
12479,9.1
12481,12.8
12483,17.3
12485,23.7
12486,33.1
12488,16.6
12489,28.8
12491,38.9
12492,29.0
12495,37.1
12498,39.4
12499,16.7
12501,12.8
12502,8.2
12504,33.6
12506,32.9
12508,2.9
12509,9.9
12511,37.8
12514,-2.1
12516,38.1
12517,28.3
12519,33.1
12521,17.5
12524,15.9
12525,31.6
12526,49.3
12527,7.4
12533,16.9
12536,14.7
12538,31.3
12540,34.6
12541,24.5
12543,8.3
12545,29.4
12547,27.5
12549,13.0
12551,15.9
12552,3.5
12553,3.3
12558,35.5
12559,27.7
12560,7.4
12563,46.8
12565,22.8
12566,27.2
12569,5.3
12571,27.3
12573,16.3
12574,2.7
12575,5.3
12576,18.5
12578,2.9
12579,31.1
12580,12.6
12581,33.3
12582,20.8
12583,6.4
12586,38.3
12587,9.7
12588,4.2
12589,36.5
12590,26.5
12592,29.6
12596,39.6
12597,14.2
12598,18.0
12600,26.9
12601,13.3
12608,10.2
12609,24.7
12610,31.0
12611,36.1
12612,32.8
12613,-2.1
12618,5.4
12619,4.2
12622,29.5
12624,24.4
12625,49.3
12628,22.0
12629,24.6
12631,10.9
12633,23.0
12635,21.8
12637,29.6
12639,28.8
12640,32.8
12643,13.8
12649,33.3
12650,38.8
12651,15.9
12652,8.6
12653,26.5
12654,38.0
12656,14.8
12658,38.2
12662,4.4
12663,51.9
12665,22.7
12667,37.8
12672,30.7
12674,25.7
12676,23.6
12680,3.9
12682,30.1
12687,3.9
12688,31.3
12689,12.0
12690,10.4
12695,18.9
12696,18.1
12700,10.8
12703,11.2
12705,17.9
12706,8.5
12708,36.8
12710,2.9
12711,32.0
12713,-7.2
12717,5.1
12718,39.4
12719,27.6
12720,18.3
12722,4.5
12723,34.4
12724,34.9
12725,23.7
12726,49.3
12729,31.6
12730,36.0
12731,39.3
12732,31.2
12738,28.8
12739,34.2
12741,35.1
12744,36.6
12745,10.4
12746,39.8
12747,34.8
12748,5.4
12749,39.2
12750,13.3
12751,27.9
12752,38.0
12756,27.6
12757,30.2
12759,2.3
12760,25.3
12763,51.9
12766,20.9
12767,9.7
12770,19.0
12773,21.1
12776,28.8
12778,39.2
12779,5.6
12780,24.2
12781,6.7
12782,13.7
12785,27.4
12786,25.0
12787,20.0
12788,31.3
12791,17.5
12792,34.8
12794,26.6
12795,30.8
12796,5.9
12797,32.9
12801,10.8
12804,18.2
12807,28.2
12808,5.7
12809,20.8
12813,-7.2
12816,17.1
12818,36.1
12819,27.0
12820,22.6
12821,38.4
12824,17.5
12825,46.8
12826,11.0
12827,22.7
12831,36.4
12832,27.3
12833,2.9
12834,29.7
12837,17.1
12838,26.2
12839,31.5
12842,26.3
12843,19.5
12844,17.3
12846,24.5
12848,9.0
12850,18.4
12851,10.8
12852,18.9
12853,33.6
12855,21.6
12856,23.7
12857,28.1
12858,19.0
12859,17.1
12860,38.1
12861,39.6
12863,54.5
12865,14.3
12868,9.1
12871,36.8
12873,24.9
12875,28.8
12877,35.9
12879,22.4
12882,25.1
12883,19.6
12884,24.1
12885,11.2
12887,14.1
12888,28.8
12889,22.3
12894,7.2
12897,15.0
12898,20.1
12899,19.7
12900,8.2
12903,18.5
12910,39.0
12912,-2.1
12913,33.8
12914,16.4
12915,2.9
12916,33.9
12917,36.7
12920,16.0
12921,30.2
12922,2.9
12923,3.1
12924,51.9
12925,4.8
12926,29.0
12928,37.5
12929,6.7
12931,18.8
12933,35.9
12937,31.3
12946,31.7
12947,14.5
12948,23.0
12949,15.9
12952,9.2
12954,4.7
12955,33.3
12956,24.4
12957,38.1
12958,15.4
12960,17.1
12961,49.3
12962,32.5
12965,22.3
12966,18.8
12969,26.6
12970,34.0
12971,13.7
12972,18.3
12973,4.1
12975,21.0
12976,26.8
12977,31.4
12979,2.2
12981,24.9
12983,12.0
12986,24.6
12987,33.9
12989,26.3
12990,21.9
12994,19.0
12999,13.3
13002,33.7
13003,20.7
13007,26.3
13009,39.7
13011,-2.1
13014,25.8
13017,26.4
13019,31.4
13024,49.3
13026,24.4
13027,2.7
13029,5.9
13033,35.3
13035,14.9
13036,2.5
13037,31.3
13042,26.5
13043,16.9
13044,25.8
13046,20.7
13048,8.5
13049,15.9
13052,30.7
13054,2.9
13056,27.1
13057,24.8
13059,7.7
13060,8.9
13062,49.3
13063,10.6
13064,9.2
13069,25.0
13070,33.2
13074,23.6
13077,26.1
13082,2.6
13083,8.4
13084,3.6
13086,31.3
13087,31.7
13089,20.9
13091,9.4
13095,37.7
13098,32.9
13099,10.8
13100,31.8
13101,36.4
13102,26.7
13107,18.1
13110,11.9
13112,-4.7
13114,32.6
13115,19.1
13116,11.1
13118,37.9
13119,29.9
13120,13.0
13123,2.9
13124,49.3
13126,32.7
13127,20.8
13130,31.7
13133,5.5
13136,28.8
13137,26.4
13139,12.5
13142,16.9
13144,27.2
13146,24.7
13147,36.2
13148,27.8
13149,15.9
13150,36.5
13153,11.7
13155,29.4
13160,22.6
13161,51.9
13165,20.7
13168,9.9
13169,26.5
13171,11.6
13174,28.8
13175,16.2
13178,11.7
13181,29.5
13187,31.3
13192,12.7
13195,26.9
13199,10.8
13205,36.1
13206,39.1
13207,27.2
13209,17.9
13211,-7.2
13212,37.2
13213,21.5
13214,27.3
13217,35.2
13218,21.3
13219,31.9
13223,46.8
13224,23.3
13225,34.5
13227,27.1
13231,37.2
13232,26.9
13234,37.9
13236,26.2
13237,25.9
13240,34.5
13244,33.6
13245,10.2
13246,39.2
13247,33.5
13249,10.8
13250,21.7
13254,11.1
13256,3.1
13258,27.2
13260,19.5
13261,54.5
13265,15.9
13267,19.9
13268,37.1
13269,36.2
13271,13.0
13272,8.0
13273,35.6
13274,31.3
13277,17.5
13278,32.6
13280,23.3
13281,27.0
13282,26.7
13283,13.4
13286,28.8
13287,35.1
13291,29.7
13292,39.9
13293,28.2
13294,34.9
13295,3.2
13298,8.2
13304,2.9
13307,29.5
13310,0.5
13311,13.6
13319,32.4
13320,15.7
13321,29.4
13322,54.5
13324,24.6
13326,22.2
13328,17.2
13330,8.3
13332,33.3
13334,31.3
13335,3.9
13336,9.5
13338,8.5
13339,39.5
13342,24.9
13344,9.5
13346,26.2
13351,3.7
13352,19.8
13357,10.6
13358,30.1
13359,28.8
13360,36.5
13361,34.1
13367,24.4
13368,12.2
13370,32.0
13372,-4.7
13374,15.1
13379,25.9
13382,28.1
13384,41.6
13385,11.2
13387,37.2
13390,4.4
13395,7.2
13396,21.0
13397,23.2
13398,15.3
13399,15.5
13400,27.7
13401,28.2
13403,26.2
13406,13.4
13409,3.0
13410,15.1
13411,27.0
13412,38.5
13413,5.6
13414,10.0
13415,10.6
13418,4.5
13420,51.9
13421,36.5
13422,24.7
13423,31.3
13425,28.1
13426,28.0
13430,33.3
13431,30.5
13432,28.8
13435,25.6
13436,33.6
13439,14.6
13441,5.0
13446,28.8
13450,29.4
13452,36.4
13454,6.2
13455,11.1
13458,8.2
13462,15.4
13466,3.1
13467,39.8
13469,-2.1
13470,8.3
13475,15.6
13476,35.6
13477,33.1
13479,7.7
13480,18.5
13481,54.5
13482,27.7
13484,36.4
13488,32.6
13493,15.1
13494,31.3
13495,28.3
13496,21.9
13497,20.8
13498,22.1
13499,23.1
13504,27.7
13505,15.2
13507,15.9
13511,15.0
13513,5.0
13515,26.0
13516,18.4
13519,49.3
13523,3.6
13524,24.9
13525,36.5
13529,5.1
13530,10.8
13532,15.9
13533,5.6
13534,20.1
13536,36.3
13540,13.6
13544,36.5
13546,33.5
13547,13.9
13553,28.0
13555,28.2
13556,13.3
13558,28.5
13560,37.1
13561,17.9
13562,20.0
13564,22.7
13565,6.1
13568,19.3
13570,-2.1
13572,11.4
13574,11.5
13575,5.6
13577,34.1
13582,51.9
13591,34.1
13594,31.3
13595,27.4
13596,33.6
13597,16.2
13599,18.1
13602,29.4
13603,35.0
13605,8.3
13606,15.9
13610,18.2
13611,35.6
13615,8.6
13616,18.1
13619,49.3
13623,21.5
13626,22.0
13627,21.4
13628,31.8
13629,18.8
13631,23.6
13632,8.1
13633,24.4
13635,37.5
13636,18.1
13638,10.9
13639,24.9
13640,18.4
13642,2.8
13643,34.1
13644,33.9
13647,37.1
13648,24.7
13651,38.1
13652,18.6
13653,20.8
13654,4.3
13655,14.8
13656,29.1
13657,13.3
13662,29.4
13668,33.2
13669,-2.1
13670,22.5
13671,36.9
13672,6.8
13673,27.7
13676,29.5
13680,18.7
13681,49.3
13682,27.7
13683,5.8
13685,8.6
13687,30.9
13688,12.7
13692,10.7
13693,28.8
13696,31.5
13698,37.0
13699,22.2
13703,3.5
13705,21.1
13706,34.3
13707,13.3
13711,5.4
13712,13.1
13713,7.8
13717,7.5
13719,51.9
13720,25.1
13721,11.2
13724,13.3
13725,3.8
13730,27.8
13731,26.2
13732,23.0
13744,31.3
13748,31.8
13749,11.0
13751,11.4
13752,7.0
13754,15.7
13755,16.1
13756,10.8
13757,16.4
13758,9.0
13759,25.2
13761,6.2
13762,14.6
13763,24.4
13769,-7.2
13773,30.4
13774,25.9
13776,9.4
13777,5.2
13778,34.3
13779,9.7
13782,49.3
13785,13.4
13786,18.6
13787,25.4
13794,28.8
13795,10.6
13797,32.2
13798,35.7
13799,28.1
13801,34.5
13802,27.2
13803,24.2
13804,20.4
13805,27.8
13806,13.3
13813,6.1
13814,2.6
13816,7.6
13817,24.2
13818,51.9
13819,38.1
13821,37.6
13823,25.0
13824,16.8
13826,31.7
13827,14.9
13829,4.4
13831,28.8
13832,19.2
13833,34.6
13836,21.4
13838,34.0
13842,7.4
13843,25.3
13844,31.3
13845,30.3
13849,29.8
13850,20.6
13851,33.2
13853,7.9
13854,5.7
13856,10.8
13858,22.9
13860,17.1
13861,36.2
13862,31.9
13864,18.8
13866,27.8
13867,18.5
13868,20.4
13869,-7.2
13873,31.4
13874,15.6
13879,23.5
13881,46.8
13882,27.9
13883,20.5
13885,18.8
13886,13.1
13889,34.3
13891,30.1
13893,26.2
13895,33.9
13898,5.1
13899,34.8
13901,4.1
13902,12.4
13906,8.2
13907,3.9
13910,32.7
13913,8.7
13914,7.0
13915,26.6
13916,30.2
13918,46.8
13920,21.8
13922,23.3
13923,23.1
13924,3.3
13928,10.1
13930,18.5
13932,37.7
13935,26.2
13936,35.5
13938,8.5
13939,14.0
13942,33.9
13943,17.2
13947,30.9
13950,3.8
13951,26.6
13952,3.8
13953,2.3
13955,13.3
13956,31.7
13958,32.0
13959,12.4
13962,28.0
13964,19.5
13965,15.2
13967,-2.1
13968,25.8
13970,22.4
13971,29.5
13973,11.1
13976,18.1
13977,21.2
13978,3.7
13979,35.8
13980,51.9
13984,33.5
13989,27.3
13990,19.0
13992,31.3
13993,4.7
13994,35.1
13997,13.9
14000,11.3
14003,12.7
14004,4.3
14005,15.9
14007,22.7
14008,8.1
14009,2.1
14012,10.9
14014,27.0
14017,51.9
14018,8.4
14025,32.3
14027,8.6
14028,31.3
14029,23.6
14033,30.1
14037,28.0
14038,4.9
14039,30.6
14043,31.3
14045,16.7
14046,6.6
14049,31.6
14052,17.6
14053,17.8
14055,10.8
14056,2.3
14058,22.4
14059,27.7
14061,27.8
14062,26.6
14063,28.7
14065,39.6
14067,-4.7
14069,30.1
14074,24.8
14075,19.7
14076,21.4
14077,28.8
14080,49.3
14081,26.6
14082,18.3
14083,9.0
14088,3.6
14089,15.4
14090,5.1
14091,28.6
14092,31.3
14093,5.8
14094,3.9
14095,20.0
14099,2.3
14100,6.3
14102,11.2
14105,15.9
14106,23.3
14109,35.1
14114,3.0
14115,26.9
14116,22.3
14117,54.5
14121,25.1
14122,6.0
14127,10.2
14130,28.8
14131,2.2
14132,16.1
14136,31.1
14140,35.5
14142,28.8
14143,24.2
14146,5.1
14148,12.1
14149,26.4
14150,15.7
14154,13.3
14160,37.5
14161,18.0
14162,20.0
14163,25.4
14166,15.1
14167,-7.2
14169,16.8
14170,6.4
14178,9.1
14179,18.3
14180,46.8
14184,5.0
14185,18.7
14186,29.9
14191,32.8
14192,26.2
14194,28.1
14195,27.7
14196,21.0
14198,30.5
14199,34.2
14203,11.1
14204,10.8
14205,15.5
14207,6.0
14208,30.2
14211,31.1
14213,16.5
14214,31.5
14217,54.5
14219,22.7
14220,37.7
14221,16.1
14222,20.8
14227,19.4
14229,31.3
14231,9.4
14232,34.2
14235,21.9
14240,30.4
14241,33.3
14242,28.8
14243,3.8
14245,29.7
14250,10.3
14251,26.9
14252,29.3
14254,38.3
14255,8.2
14256,27.4
14257,38.5
14258,13.5
14259,31.9
14260,35.7
14262,8.7
14263,18.1
14265,29.6
14266,0.5
14272,2.0
14274,38.2
14275,6.2
14276,32.6
14277,54.5
14279,17.8
14280,5.7
14281,13.3
14282,25.8
14283,5.9
14287,9.1
14289,33.9
14290,21.4
14291,6.3
14292,17.1
14293,22.2
14294,18.0
14296,35.7
14297,17.8
14298,20.2
14299,34.0
14300,16.8
14301,16.3
14302,39.1
14303,23.6
14309,16.7
14312,21.4
14315,26.2
14316,20.4
14317,2.8
14318,16.3
14319,23.2
14320,38.5
14322,2.1
14324,12.6
14326,10.4
14327,-9.8
14329,28.0
14330,37.0
14331,10.7
14332,29.7
14333,28.2
14334,5.0
14335,15.1
14336,39.1
14339,30.4
14340,41.6
14341,7.5
14345,38.3
14347,39.5
14351,24.6
14352,21.0
14354,27.1
14356,8.4
14359,37.5
14360,16.6
14363,24.7
14364,5.6
14365,12.6
14366,3.7
14367,12.0
14368,16.3
14373,37.6
14375,7.5
14376,54.5
14377,5.6
14378,22.6
14380,8.5
14381,21.5
14383,12.7
14387,6.7
14389,26.2
14391,9.3
14394,5.3
14397,6.3
14399,28.5
14400,31.4
14401,31.3
14403,37.9
14404,26.8
14405,34.2
14406,20.3
14407,27.7
14410,22.0
14411,29.7
14413,10.8
14416,33.8
14418,21.8
14420,11.6
14421,23.9
14424,36.0
14426,-4.7
14434,24.1
14436,19.1
14439,46.8
14440,24.8
14444,14.0
14445,37.3
14449,7.1
14451,26.2
14455,20.6
14459,6.2
14464,10.8
14465,22.8
14468,17.6
14473,14.8
14475,17.9
14476,54.5
14477,21.6
14478,5.6
14479,25.6
14480,27.2
14488,28.8
14490,39.8
14491,35.9
14492,2.4
14496,4.9
14497,10.0
14498,32.4
14500,28.8
14502,34.5
14503,34.9
14504,13.9
14506,34.7
14508,5.6
14510,17.5
14511,33.5
14512,8.4
14514,8.2
14516,19.5
14518,38.3
14519,33.6
14520,19.0
14522,8.8
14525,-2.1
14529,34.9
14533,17.7
14535,17.9
14536,13.6
14537,51.9
14539,17.6
14541,20.5
14543,23.3
14544,4.7
14547,23.8
14550,31.3
14552,35.9
14556,22.0
14558,28.2
14562,15.9
14564,24.4
14567,24.1
14568,24.2
14569,16.9
14570,39.2
14574,8.3
14575,49.3
14577,3.8
14578,31.0
14579,26.4
14581,2.5
14582,4.9
14587,21.0
14589,39.7
14591,15.2
14592,32.2
14593,28.4
14594,6.4
14600,33.9
14601,10.4
14607,39.4
14608,9.4
14609,37.0
14610,32.5
14611,11.2
14612,13.3
14618,19.9
14620,34.7
14622,14.5
14623,24.0
14624,-4.7
14625,30.7
14626,3.7
14628,28.2
14632,33.7
14634,11.2
14636,27.6
14638,49.3
14640,24.9
14641,30.5
14643,16.1
14645,31.5
14646,21.1
14649,15.0
14650,31.3
14652,18.0
14654,38.8
14655,35.0
14656,27.8
14657,36.8
14658,22.8
14660,33.6
14661,7.8
14662,13.3
14666,34.3
14667,40.0
14670,10.3
14672,26.0
14674,51.9
14676,7.5
14680,14.2
14682,38.5
14685,15.0
14686,18.6
14687,26.2
14689,12.3
14691,33.7
14699,31.3
14702,28.6
14703,9.0
14705,23.2
14708,35.4
14712,10.8
14716,25.9
14720,34.0
14722,36.3
14724,33.6
14725,-4.7
14726,33.6
14729,35.0
14732,36.1
14733,36.4
14737,49.3
14739,6.0
14740,28.7
14741,8.9
14743,9.1
14744,32.8
14746,6.6
14749,28.8
14750,22.6
14752,10.9
14753,24.7
14756,15.6
14758,5.7
14759,9.9
14761,13.3
14762,31.4
14763,11.6
14767,10.9
14768,13.9
14769,10.3
14770,4.0
14772,11.2
14774,36.0
14775,51.9
14776,32.4
14781,24.7
14784,21.8
14787,28.8
14788,30.0
14792,31.5
14793,25.6
14796,26.7
14798,18.3
14799,31.3
14802,27.1
14804,15.8
14805,32.0
14806,22.5
14807,7.2
14810,12.5
14812,10.8
14813,29.7
14815,23.4
14816,30.5
14823,25.0
14824,-7.2
14826,8.7
14827,6.1
14834,20.4
14836,31.5
14837,46.8
14838,9.2
14839,26.7
14842,30.9
14843,5.5
14844,17.2
14845,4.4
14848,35.3
14849,10.2
14850,26.2
14851,25.6
14852,9.3
14854,18.3
14857,3.1
14859,28.3
14861,6.6
14862,8.2
14863,27.0
14864,28.9
14865,39.0
14868,28.8
14869,8.8
14871,7.0
14873,46.8
14874,8.5
14877,8.5
14878,34.3
14880,12.3
14885,18.5
14886,28.2
14887,22.0
14888,32.1
14893,29.4
14898,33.9
14899,32.8
14902,4.3
14903,27.6
14905,11.3
14909,29.9
14911,13.3
14914,18.5
14915,13.7
14919,2.5
14922,35.9
14923,-2.1
14932,5.8
14936,51.9
14941,32.1
14942,13.0
14943,8.4
14948,31.3
14950,30.9
14953,23.0
14954,34.4
14956,7.9
14960,15.9
14964,39.4
14966,3.2
14968,28.3
14971,11.3
14973,49.3
14975,33.8
14977,16.0
14978,28.5
14982,13.7
14983,17.6
14984,28.7
14986,23.6
14988,37.6
14991,6.5
14993,30.0
14996,18.2
14998,33.9
15000,4.5
15001,14.8
15002,39.6
15006,2.3
15008,32.5
15010,13.3
15012,12.8
15013,13.7
15014,15.4
15018,25.6
15022,25.6
15023,-2.1
15024,4.5
15027,9.3
15028,3.5
15032,13.8
15033,26.2
15034,13.4
15036,49.3
15038,14.3
15041,5.5
15042,26.1
15044,4.1
15046,36.6
15048,31.3
15049,8.8
15051,34.7
15053,27.4
15055,33.2
15056,4.7
15058,26.4
15059,14.1
15060,15.9
15065,14.1
15069,12.2
15070,30.5
15071,24.6
15072,8.7
15073,51.9
15074,26.1
15080,8.6
15081,20.3
15082,29.0
15084,18.4
15085,26.2
15086,27.2
15088,40.0
15091,24.8
15094,31.5
15096,23.7
15097,28.8
15098,10.9
15100,22.4
15105,5.5
15106,11.5
15108,33.7
15110,25.8
15111,8.2
15112,22.6
15113,30.7
15114,25.1
15116,2.6
15117,25.6
15118,10.8
15119,32.2
15120,6.8
15121,26.8
15122,3.0
15123,34.6
15125,13.2
15128,16.4
15130,27.6
15133,54.5
15134,21.5
15137,9.1
15139,17.6
15140,9.7
15143,13.4
15145,31.3
15148,21.7
15152,25.0
15154,38.2
15155,11.8
15157,20.0
15158,28.8
15161,5.9
15165,38.4
15166,22.0
15168,18.6
15171,15.9
15173,25.3
15174,29.8
15175,21.3
15182,31.5
15183,-9.8
15185,15.8
15186,12.9
15187,12.8
15191,29.6
15192,8.7
15194,37.9
15195,37.9
15196,44.2
15197,23.1
15199,15.1
15200,19.1
15201,9.8
15202,33.2
15203,2.8
15207,34.8
15208,26.2
15209,8.2
15211,30.8
15214,23.3
15216,36.3
15217,21.9
15218,25.6
15220,8.2
15223,16.2
15225,12.3
15231,39.4
15232,49.3
15234,20.2
15236,26.0
15238,2.3
15243,23.6
15244,32.7
15245,23.6
15251,25.0
15254,38.5
15255,12.8
15257,31.3
15261,10.0
15263,24.8
15264,33.9
15265,19.9
15269,13.3
15271,14.5
15278,11.8
15281,6.7
15282,-4.7
15285,22.9
15286,9.7
15291,3.4
15292,24.5
15293,24.4
15294,51.9
15295,12.4
15297,22.9
15298,38.1
15301,10.1
15303,12.4
15305,12.8
15306,29.7
15307,28.8
15309,26.5
15311,27.3
15312,21.6
15314,18.5
15317,19.1
15320,13.3
15321,22.5
15322,24.0
15331,19.4
15332,51.9
15334,17.5
15335,6.0
15336,28.6
15337,34.5
15343,2.8
15344,26.2
15345,34.8
15346,34.5
15347,24.2
15349,5.2
15351,11.9
15353,18.7
15354,5.1
15356,31.3
15357,3.0
15358,30.8
15359,32.3
15360,11.9
15361,38.2
15362,29.2
15363,37.9
15366,5.9
15367,16.9
15369,33.5
15370,10.8
15372,17.9
15375,29.7
15377,2.0
15382,-7.2
15385,14.9
15386,22.6
15388,21.2
15390,37.9
15393,28.1
15394,49.3
15395,16.6
15397,27.2
15403,11.9
15407,26.2
15409,35.7
15410,28.0
15411,9.8
15412,28.4
15414,38.8
15419,10.8
15422,16.0
15423,35.7
15424,39.4
15425,23.9
15428,14.5
15431,54.5
15432,35.6
15433,39.7
15434,12.6
15437,30.9
15438,2.6
15439,14.7
15444,31.3
15446,17.5
15455,34.6
15456,23.9
15457,26.2
15458,38.0
15464,20.4
15465,13.8
15467,7.2
15469,8.2
15470,29.1
15471,36.2
15473,36.2
15474,32.2
15475,18.5
15476,19.9
15480,-2.1
15488,28.7
15491,24.3
15492,36.2
15493,49.3
15495,32.5
15498,6.7
15502,38.4
15504,34.1
15506,31.3
15507,14.6
15515,39.3
15516,27.9
15518,15.9
15521,11.1
15522,14.3
15524,28.8
15525,20.6
15526,30.3
15528,30.7
15531,49.3
15534,35.2
15535,13.4
15537,39.7
15540,4.7
15542,17.6
15543,21.0
15551,30.7
15552,21.7
15553,12.9
15555,33.9
15557,11.3
15558,30.4
15561,34.7
15563,35.0
15565,27.5
15566,9.4
15567,21.5
15568,13.3
15578,10.4
15579,29.4
15581,-2.1
15583,5.2
15584,31.3
15585,34.3
15586,7.4
15587,22.9
15588,16.3
15589,14.7
15590,38.7
15592,25.2
15593,51.9
15597,9.9
15598,30.8
15599,26.4
15603,21.1
15605,28.8
15610,16.0
15611,36.4
15614,36.3
15616,20.6
15617,15.3
15618,13.3
15620,16.3
15622,20.0
15624,35.9
15625,16.7
15626,17.8
15628,4.0
15630,51.9
15631,9.4
15633,18.1
15634,11.6
15635,27.8
15638,10.0
15641,24.6
15643,26.2
15647,17.3
15652,31.7
15655,31.3
15656,16.3
15657,30.1
15659,11.3
15664,6.0
15665,4.7
15666,38.6
15667,9.5
15668,10.8
15669,16.1
15670,27.8
15671,5.4
15676,29.1
15677,30.2
15679,3.8
15680,-4.7
15681,35.5
15682,33.9
15683,35.7
15687,13.5
15689,34.9
15692,46.8
15693,19.5
15694,35.7
15695,8.6
15696,17.7
15697,7.2
15699,11.3
15700,16.9
15702,22.5
15703,28.5
15704,21.4
15705,36.3
15706,28.8
15707,23.1
15709,35.7
15710,20.6
15711,20.8
15714,31.8
15715,38.7
15717,34.6
15718,10.8
15719,25.3
15728,28.0
15730,54.5
15731,26.7
15732,37.8
15733,33.9
15735,29.1
15737,7.3
15738,15.5
15739,9.2
15741,30.5
15742,26.2
15746,31.9
15748,35.4
15750,35.0
15752,38.6
15755,31.3
15756,31.8
15757,20.1
15759,19.7
15763,23.2
15768,10.8
15770,12.7
15771,12.1
15772,7.7
15777,38.4
15778,20.2
15780,-7.2
15787,19.8
15793,46.8
15795,5.1
15796,24.7
15797,15.3
15798,13.3
15800,4.9
15803,30.7
15804,31.1
15805,26.2
15806,26.8
15807,9.9
15808,25.6
15811,4.2
15814,3.2
15816,29.3
15817,10.8
15818,23.7
15819,12.6
15820,3.3
15821,17.5
15822,17.1
15825,29.6
15827,7.7
15829,30.3
15830,54.5
15832,29.4
15836,15.0
15837,22.0
15840,38.4
15843,28.8
15844,14.7
15849,27.0
15852,15.9
15853,15.0
15854,8.9
15855,26.2
15856,9.6
15859,27.7
15860,37.8
15862,18.3
15865,3.2
15867,13.3
15871,28.0
15873,36.8
15874,31.0
15876,34.7
15877,3.4
15878,19.7
15880,-7.2
15881,34.5
15885,23.7
15888,5.0
15890,4.3
15891,11.3
15892,44.2
15894,13.7
15898,39.6
15900,27.3
15904,33.3
15905,23.6
15906,5.0
15907,24.8
15908,31.1
15911,21.1
15912,24.5
15914,17.2
15918,5.6
15923,13.9
15925,5.1
15928,22.8
15929,49.3
15930,27.9
15933,14.1
15936,10.2
15938,38.5
15940,31.9
15941,23.6
15942,12.5
15943,18.2
15948,13.9
15951,13.6
15953,33.9
15954,19.0
15955,37.1
15956,21.4
15962,31.0
15967,10.8
15972,17.5
15973,20.5
15977,2.0
15979,-4.7
15985,29.4
15986,29.9
15988,17.6
15991,49.3
15992,27.5
15996,34.6
15997,33.7
16004,28.8
16007,22.8
16009,7.6
16011,25.3
16012,30.1
16015,29.1
16016,13.3
16017,16.0
16018,15.0
16024,24.8
16028,49.3
16033,16.2
16038,22.0
16039,25.5
16041,26.2
16043,12.5
16046,8.2
16048,10.8
16050,10.8
16051,29.7
16053,23.8
16054,33.9
16059,9.1
16060,18.1
16062,12.9
16064,2.7
16066,10.8
16067,12.6
16070,20.3
16072,11.2
16074,22.3
16078,-4.7
16079,8.6
16080,7.9
16081,11.6
16082,15.5
16083,10.2
16087,5.4
16088,16.8
16091,49.3
16097,3.2
16098,20.4
16099,19.1
16101,11.3
16102,23.0
16103,33.8
16104,26.2
16107,11.6
16110,29.9
16111,21.0
16114,8.4
16116,10.8
16117,19.3
16122,34.9
16123,33.4
16124,2.1
16125,14.4
16126,12.0
16129,51.9
16132,5.9
16141,28.8
16142,37.3
16144,30.4
16152,27.5
16153,28.8
16154,36.8
16161,10.6
16163,21.2
16166,10.8
16167,26.5
16168,33.9
16170,39.7
16171,22.4
16172,30.4
16173,28.6
16175,34.7
16177,17.7
16179,-7.2
16180,37.2
16181,34.9
16184,20.2
16185,5.6
16187,5.4
16189,9.7
16190,15.9
16191,44.2
16194,21.2
16196,9.1
16197,7.4
16198,21.5
16199,9.4
16203,26.2
16205,36.2
16210,38.9
16214,31.4
16216,10.8
16219,22.3
16220,5.0
16221,10.0
16222,25.6
16223,22.0
16225,22.4
16226,26.2
16227,28.4
16228,54.5
16229,20.6
16230,24.9
16232,15.1
16235,25.7
16236,25.6
16240,32.7
16241,31.3
16242,21.9
16246,28.8
16248,27.7
16250,39.0
16253,26.2
16254,36.8
16256,38.9
16257,23.1
16259,16.3
16261,15.7
16262,21.7
16263,35.7
16265,34.9
16266,15.9
16273,16.3
16275,15.1
16277,25.6
16278,-9.8
16279,10.2
16284,9.8
16286,34.4
16287,24.3
16288,13.8
16290,44.2
16293,31.0
16294,23.7
16301,22.8
16304,23.6
16307,29.2
16308,3.6
16309,4.1
16313,9.5
16315,22.2
16316,5.6
16318,33.1
16320,34.9
16321,9.2
16324,6.8
16327,51.9
16328,25.1
16330,33.0
16332,13.8
16333,8.0
16334,28.2
16337,35.3
16338,23.8
16339,26.2
16340,30.3
16343,11.2
16344,31.0
16347,4.0
16348,24.3
16352,31.3
16354,37.1
16358,8.6
16360,21.6
16363,7.9
16364,10.8
16365,36.4
16366,13.2
16369,39.6
16371,13.2
16374,17.3
16376,9.5
16377,-4.7
16379,5.2
16380,35.5
16383,15.5
16385,9.4
16389,4.1
16390,49.3
16391,4.4
16392,10.5
16396,9.2
16400,32.7
16401,13.3
16402,31.3
16403,19.1
16404,22.2
16405,27.5
16406,5.8
16408,3.8
16411,40.0
16414,15.9
16415,30.1
16416,15.7
16417,22.9
16418,27.2
16422,13.9
16424,19.4
16426,30.2
16427,51.9
16428,28.9
16435,11.0
16436,32.4
16437,14.4
16438,35.7
16439,6.5
16440,28.8
16445,23.2
16447,39.0
16448,24.7
16452,31.3
16453,5.7
16455,17.5
16456,25.3
16457,36.4
16458,12.1
16460,7.8
16461,17.8
16462,28.0
16464,8.2
16469,37.5
16470,36.9
16471,32.5
16474,2.9
16475,38.9
16476,0.5
16477,36.9
16479,30.4
16480,39.3
16482,16.5
16483,25.4
16487,54.5
16488,2.7
16492,36.0
16493,35.8
16494,34.3
16497,29.6
16498,26.2
16500,31.3
16501,8.1
16502,11.5
16505,32.4
16506,6.7
16510,22.4
16512,17.9
16513,26.2
16516,21.1
16517,6.8
16518,28.1
16523,26.0
16525,21.0
16526,21.0
16528,37.3
16531,17.3
16533,26.7
16537,-12.4
16545,16.5
16550,36.5
16551,25.5
16552,31.6
16554,38.3
16556,3.2
16558,9.4
16560,12.3
16561,23.8
16563,15.9
16565,37.4
16575,5.3
16576,-2.1
16579,2.1
16582,15.1
16584,10.8
16585,27.2
16587,26.1
16588,51.9
16589,37.1
16591,38.0
16593,15.4
16594,6.9
16595,7.0
16597,25.8
16598,3.9
16600,9.6
16601,31.3
16602,7.5
16604,3.8
16605,26.5
16609,19.6
16611,34.1
16612,23.2
16613,15.9
16614,25.4
16616,29.9
16617,11.7
16621,9.3
16622,19.6
16623,6.6
16624,25.2
16625,49.3
16627,5.4
16628,14.7
16629,36.2
16637,32.8
16638,23.6
16642,14.6
16643,39.8
16645,35.6
16648,32.5
16649,2.9
16650,37.3
16651,33.9
16653,36.7
16654,38.0
16657,17.2
16658,32.6
16663,13.3
16665,3.7
16666,23.0
16671,8.6
16674,37.5
16675,-4.7
16676,8.9
16679,2.5
16680,31.8
16681,34.2
16682,35.7
16683,12.0
16686,38.3
16688,49.3
16690,17.2
16692,39.2
16693,38.7
16694,3.6
16695,24.0
16697,11.8
16699,5.2
16701,28.8
16705,21.1
16706,29.7
16709,21.2
16711,18.6
16713,15.9
16715,38.6
16716,11.9
16726,51.9
16728,3.3
16732,36.2
16736,14.5
16737,34.0
16738,26.2
16739,18.4
16741,7.1
16746,21.6
16747,20.7
16749,21.3
16750,31.3
16754,21.4
16758,29.7
16759,16.5
16762,13.3
16763,18.2
16764,39.3
16765,39.1
16766,25.7
16768,11.0
16776,-4.7
16778,9.8
16779,27.0
16783,4.0
16787,26.6
16788,49.3
16790,35.6
16793,7.2
16794,24.5
16796,35.6
16799,39.7
16800,26.2
16802,32.4
16805,35.0
16808,23.1
16812,2.3
16813,13.3
16814,12.6
16816,33.6
16819,12.5
16822,30.6
16825,54.5
16828,36.3
16829,5.0
16832,23.9
16833,2.6
16834,21.3
16835,9.9
16836,6.6
16837,29.4
16838,28.8
16839,11.7
16840,39.8
16844,24.3
16848,39.6
16849,14.3
16850,31.3
16856,11.3
16857,8.4
16858,29.3
16859,13.0
16860,4.8
16862,29.0
16863,8.2
16864,6.6
16865,19.5
16866,23.4
16869,3.8
16870,15.7
16874,0.5
16882,13.7
16883,6.9
16885,54.5
16887,11.1
16893,15.6
16894,5.5
16895,29.9
16897,20.0
16899,33.9
16902,26.3
16904,33.2
16906,14.6
16911,23.6
16916,10.4
16917,27.0
16918,17.0
16920,2.3
16921,23.2
16923,23.6
16924,34.9
16927,30.8
16928,17.4
16930,25.8
16931,30.4
16933,17.7
16934,32.4
16935,-12.4
16938,16.4
16940,27.1
16941,24.5
16942,8.3
16946,31.4
16947,37.7
16948,22.3
16949,36.5
16951,9.1
16953,35.7
16955,22.0
16956,8.3
16959,22.4
16961,13.3
16964,2.1
16970,31.0
16972,22.0
16973,7.9
16974,-2.1
16975,16.2
16976,3.6
16977,36.1
16980,21.5
16984,18.2
16987,51.9
16988,29.6
16990,27.9
16993,33.6
16997,20.4
16998,17.6
16999,31.3
17000,20.8
17002,2.7
17006,38.1
17011,15.9
17012,12.6
17019,32.5
17021,10.3
17024,49.3
17026,39.0
17029,29.9
17030,23.8
17032,33.6
17034,20.0
17036,7.6
17037,23.6
17038,10.8
17039,26.2
17049,33.9
17051,5.1
17054,20.1
17056,36.1
17058,28.0
17059,28.9
17060,24.8
17061,10.8
17063,8.0
17067,21.1
17068,25.7
17072,12.4
17073,28.9
17074,-4.7
17075,38.7
17078,5.3
17079,28.1
17081,28.8
17082,13.1
17086,49.3
17089,22.0
17090,28.0
17094,39.3
17097,7.9
17099,28.8
17100,18.9
17101,30.9
17102,33.9
17104,26.8
17105,32.0
17106,25.5
17107,18.1
17108,14.7
17111,12.2
17112,13.3
17116,17.4
17117,31.9
17118,4.7
17119,15.6
17120,26.4
17121,13.8
17124,54.5
17126,6.2
17132,17.3
17135,22.1
17136,28.8
17139,18.2
17142,37.5
17146,2.3
17147,32.7
17148,28.8
17151,23.5
17152,9.8
17153,30.0
17154,33.1
17155,4.3
17156,6.2
17157,31.8
17158,33.8
17160,5.3
17161,10.8
17162,30.0
17164,23.9
17166,26.8
17167,7.9
17169,37.0
17171,7.5
17173,21.9
17174,-4.7
17177,30.9
17178,32.1
17182,10.2
17183,31.3
17185,24.8
17186,46.8
17191,20.2
17195,17.6
17199,28.8
17203,3.9
17207,25.9
17208,31.1
17210,18.6
17211,10.8
17215,28.4
17216,38.3
17221,32.6
17223,54.5
17227,35.2
17228,38.9
17229,12.4
17230,32.2
17231,9.5
17232,13.4
17233,2.2
17236,31.3
17239,33.9
17240,14.7
17242,10.3
17244,30.4
17245,16.2
17248,35.5
17249,28.8
17253,17.2
17254,39.5
17256,20.5
17257,37.3
17260,14.4
17261,8.2
17265,12.4
17266,35.5
17267,15.1
17269,24.3
17271,35.9
17272,0.5
17275,3.6
17280,35.8
17282,20.4
17283,12.2
17284,54.5
17286,30.4
17288,39.6
17289,26.1
17291,7.2
17292,7.2
17296,33.9
17298,25.9
17301,30.5
17302,17.0
17303,28.5
17305,32.1
17307,25.7
17308,4.4
17309,23.6
17312,24.8
17316,7.8
17321,28.8
17329,22.2
17330,39.3
17332,17.5
17333,30.1
17334,-4.7
17336,37.2
17340,7.8
17342,21.0
17343,30.0
17344,8.5
17346,44.2
17350,5.2
17352,35.5
17355,15.6
17358,21.0
17362,14.2
17364,35.7
17366,31.8
17368,33.9
17370,10.3
17372,5.6
17373,11.3
17374,2.7
17375,20.9
17378,14.9
17380,14.2
17381,7.3
17383,54.5
17384,36.7
17385,16.7
17389,17.8
17390,10.3
17392,25.1
17394,17.1
17395,28.8
17397,26.4
17399,12.1
17400,30.4
17401,2.1
17403,23.3
17404,31.5
17405,2.9
17408,28.8
17409,20.3
17412,15.0
17416,27.3
17419,36.0
17420,10.8
17422,28.5
17423,37.7
17424,25.1
17425,4.5
17426,20.4
17429,16.1
17430,7.8
17433,-7.2
17434,27.7
17436,12.5
17439,5.6
17441,13.7
17444,31.7
17445,49.3
17450,14.9
17451,27.5
17458,26.2
17459,18.3
17460,12.5
17461,22.6
17465,21.8
17467,27.6
17468,11.3
17470,10.8
17472,31.7
17473,14.8
17477,23.7
17478,12.3
17480,18.9
17482,54.5
17485,15.3
17486,31.6
17488,24.1
17489,3.4
17492,2.7
17495,31.3
17496,14.4
17498,29.6
17504,12.0
17505,32.2
17506,10.0
17507,33.7
17508,28.8
17511,10.5
17512,31.1
17516,22.4
17518,27.0
17520,13.3
17521,5.9
17525,34.7
17526,32.4
17527,8.6
17529,7.4
17532,-7.2
17535,2.1
17540,24.1
17541,31.2
17542,34.6
17543,4.0
17545,46.8
17548,17.4
17549,38.1
17551,11.2
17552,34.9
17553,15.1
17554,15.7
17556,19.6
17557,23.6
17558,6.7
17562,3.9
17565,3.8
17568,6.7
17570,8.2
17571,14.7
17573,11.6
17578,19.3
17579,10.7
17581,12.9
17582,51.9
17583,38.5
17585,11.1
17587,4.7
17588,36.0
17589,12.0
17593,22.4
17594,23.6
17597,7.1
17603,15.4
17604,15.9
17605,38.6
17606,33.9
17607,14.8
17608,11.7
17611,10.5
17612,12.3
17613,38.7
17614,26.1
17617,13.7
17618,13.3
17619,17.0
17625,14.5
17626,26.7
17627,19.8
17628,25.5
17630,13.9
17632,-4.7
17634,11.0
17636,7.5
17640,15.9
17641,16.2
17644,49.3
17645,23.0
17646,33.7
17647,27.6
17648,24.1
17649,38.8
17650,15.1
17655,30.4
17656,28.8
17658,13.5
17661,20.5
17665,37.3
17667,5.7
17668,17.5
17669,13.3
17670,3.7
17675,31.9
17677,36.6
17679,31.4
17681,54.5
17685,12.0
17689,26.3
17692,31.5
17693,28.8
17697,17.6
17700,11.1
17702,30.2
17704,26.9
17706,38.6
17707,31.3
17709,13.5
17714,2.1
17715,2.7
17716,5.9
17717,17.2
17718,24.5
17719,10.8
17722,39.1
17724,26.1
17726,5.6
17729,29.7
17731,-4.7
17733,20.7
17734,24.4
17737,29.4
17740,32.7
17742,28.4
17743,49.3
17744,39.0
17746,6.7
17747,15.3
17748,14.1
17749,14.9
17756,28.8
17758,3.6
17760,29.1
17763,21.0
17764,12.8
17765,29.1
17768,17.3
17769,10.8
17770,6.7
17774,3.0
17779,25.1
17780,16.8
17781,54.5
17784,2.7
17787,19.5
17789,25.4
17790,3.2
17791,34.2
17792,30.8
17793,18.7
17794,31.3
17795,3.3
17796,16.6
17798,23.8
17799,26.6
17800,23.8
17805,20.6
17806,28.8
17812,18.4
17814,24.7
17815,37.9
17816,13.9
17818,8.2
17819,27.8
17820,17.1
17821,28.7
17822,6.2
17824,32.3
17825,24.0
17826,31.7
17827,27.3
17828,31.3
17829,37.1
17830,0.5
17831,18.1
17832,17.3
17833,11.5
17834,39.9
17840,32.0
17841,20.5
17842,54.5
17843,11.1
17844,35.4
17845,32.2
17847,28.7
17848,24.6
17849,3.7
17850,4.2
17853,6.9
17854,33.9
17855,22.3
17857,10.1
17858,31.6
17861,38.7
17866,26.2
17868,10.8
17875,15.1
17879,31.3
17881,6.0
17882,9.4
17885,2.3
17886,12.3
17890,3.8
17891,-7.2
17895,19.8
17896,34.6
17897,8.3
17900,26.1
17901,39.1
17902,10.6
17904,41.6
17905,17.4
17907,27.6
17908,10.6
17911,20.2
17912,31.3
17913,23.6
17914,18.8
17915,33.2
17916,21.0
17917,4.4
17918,28.4
17919,21.8
17920,2.8
17921,28.7
17924,34.5
17925,35.9
17927,2.4
17928,4.0
17929,5.6
17933,19.3
17934,29.4
17936,32.6
17938,31.4
17940,51.9
17941,18.6
17945,15.9
17946,32.9
17947,16.8
17952,28.8
17953,3.0
17955,8.6
17957,34.3
17958,8.9
17961,39.7
17963,17.8
17964,36.1
17965,19.9
17966,28.8
17968,24.5
17973,12.0
17975,31.6
17978,8.2
17982,4.6
17986,35.7
17987,34.8
17989,0.5
17997,21.9
17998,18.3
18000,54.5
18002,24.2
18004,5.4
18005,6.8
18006,6.9
18007,9.5
18008,32.5
18009,4.9
18013,31.3
18014,25.8
18016,8.3
18017,34.9
18018,32.6
18019,5.1
18020,6.1
18025,26.2
18030,20.6
18031,26.4
18032,23.6
18035,39.2
18037,34.0
18038,23.6
18040,32.8
18043,34.9
18047,17.0
18050,30.8
18051,-12.4
18054,14.1
18055,38.6
18056,25.9
18057,12.4
18060,36.8
18061,28.6
18062,8.9
18064,33.9
18065,28.1
18066,14.0
18068,12.9
18069,4.9
18072,21.8
18073,32.3
18076,13.3
18077,28.1
18080,27.3
18083,31.1
18084,28.5
18088,-2.1
18089,5.2
18090,16.5
18091,19.1
18095,21.4
18096,2.7
18098,14.8
18099,4.2
18101,23.0
18102,51.9
18106,26.6
18109,22.5
18111,28.2
18113,10.2
18114,31.3
18116,33.8
18119,29.4
18120,21.5
18123,31.7
18124,22.4
18126,15.9
18127,36.1
18128,34.8
18131,37.7
18133,11.9
18135,27.5
18136,8.3
18139,49.3
18140,38.0
18146,11.9
18147,21.8
18149,9.5
18151,23.6
18155,14.3
18156,39.0
18159,36.2
18162,6.2
18163,18.8
18164,33.9
18169,22.6
18170,36.6
18172,2.4
18177,10.8
18178,2.1
18179,20.3
18185,31.6
18186,37.0
18187,19.8
18188,20.4
18189,-2.1
18196,29.8
18201,49.3
18202,2.4
18205,18.0
18209,27.3
18210,18.5
18213,28.8
18214,38.9
18216,11.0
18219,19.7
18222,7.5
18223,24.9
18224,2.1
18225,18.0
18226,13.3
18229,20.3
18231,33.9
18233,26.2
18236,9.1
18238,5.6
18239,54.5
18240,7.6
18241,12.7
18242,21.9
18251,28.8
18255,21.6
18257,23.3
18261,27.0
18264,31.3
18265,5.9
18267,16.8
18269,23.8
18270,3.7
18272,35.7
18274,27.5
18275,16.7
18276,10.8
18283,13.3
18285,14.5
18286,17.2
18288,-4.7
18290,25.4
18292,19.8
18293,6.1
18295,25.3
18298,17.2
18299,14.3
18300,36.4
18301,46.8
18307,30.6
18311,25.2
18312,2.8
18313,31.8
18314,26.2
18315,11.5
18323,32.3
18324,3.3
18326,13.3
18327,23.5
18330,29.0
18331,20.5
18338,54.5
18339,2.6
18341,13.3
18342,14.8
18344,27.2
18345,6.4
18347,38.5
18348,19.1
18350,4.0
18351,31.3
18362,23.0
18363,30.0
18364,28.8
18366,16.2
18376,10.8
18377,23.8
18378,9.1
18379,39.8
18381,7.4
18387,16.9
18388,-9.8
18390,38.3
18393,19.6
18399,8.7
18400,38.5
18401,46.8
18406,37.0
18407,4.5
18413,26.2
18414,11.5
18415,36.3
18423,29.7
18425,8.2
18430,31.7
18432,15.0
18436,8.5
18437,32.2
18438,51.9
18439,7.3
18441,6.3
18442,23.7
18448,37.3
18450,23.6
18461,3.0
18462,33.9
18463,28.9
18466,19.3
18467,32.1
18468,21.5
18472,7.4
18474,34.0
18475,10.8
18476,24.9
18477,9.6
18480,39.8
18482,22.7
18483,30.7
18484,33.4
18487,-2.1
18489,9.3
18492,33.9
18494,26.3
18495,2.2
18500,49.3
18502,15.8
18504,11.1
18505,32.5
18507,34.3
18508,20.2
18512,28.8
18514,14.8
18516,11.6
18517,23.8
18525,13.3
18527,31.3
18534,28.8
18535,6.6
18537,51.9
18538,35.3
18541,29.9
18547,13.6
18549,23.6
18550,36.5
18559,31.1
18561,7.7
18563,31.3
18564,22.6
18566,9.2
18573,23.7
18575,10.8
18576,16.0
18578,38.2
18580,24.2
18582,20.3
18584,24.0
18585,37.4
18587,-4.7
18590,14.9
18592,30.8
18595,24.9
18598,5.8
18599,49.3
18601,37.3
18604,5.1
18605,20.5
18606,3.0
18607,3.2
18608,17.6
18609,19.2
18612,26.2
18614,4.2
18615,23.8
18617,4.8
18621,11.6
18624,10.8
18625,37.4
18630,16.5
18631,14.5
18633,38.6
18637,51.9
18638,11.6
18642,32.7
18643,30.9
18647,26.0
18650,26.2
18651,24.4
18652,9.9
18655,19.0
18658,23.2
18659,6.4
18660,23.2
18662,28.8
18663,31.0
18665,17.3
18667,19.7
18671,27.4
18674,8.2
18675,34.6
18679,2.4
18681,12.6
18682,13.8
18683,37.8
18684,26.9
18685,0.5
18686,29.1
18687,24.3
18689,29.2
18691,27.7
18694,27.4
18698,54.5
18700,10.9
18701,5.0
18702,31.0
18704,30.9
18705,3.7
18706,10.6
18709,12.0
18710,31.3
18712,32.1
18713,30.4
18716,29.5
18717,19.1
18718,36.7
18720,39.4
18722,23.6
18723,36.1
18724,12.0
18726,35.0
18728,6.4
18735,26.2
18738,2.0
18742,22.6
18744,36.1
18745,34.6
18746,24.3
18747,-12.4
18749,28.6
18750,39.4
18753,29.6
18757,10.3
18758,6.4
18759,5.5
18760,33.9
18761,15.1
18766,2.7
18770,15.0
18773,13.0
18774,15.9
18783,20.4
18785,19.3
18786,-2.1
18787,31.6
18789,24.2
18792,37.7
18798,51.9
18799,33.1
18802,29.3
18805,13.4
18806,20.1
18807,33.6
18809,6.0
18810,28.8
18812,3.9
18813,38.2
18818,23.9
18821,16.9
18822,35.5
18823,15.9
18825,15.8
18827,27.6
18829,15.3
18830,15.0
18831,7.7
18832,23.5
18834,19.3
18835,8.3
18836,49.3
18839,28.0
18840,10.0
18841,21.3
18843,12.2
18844,39.6
18845,2.9
18848,23.6
18849,9.7
18850,2.4
18851,21.3
18853,38.4
18857,16.4
18860,34.6
18861,33.9
18862,30.2
18864,2.4
18866,18.5
18867,29.5
18869,29.7
18871,8.9
18872,34.9
18873,10.8
18874,26.7
18875,34.8
18882,4.6
18883,21.7
18884,37.4
18885,-4.7
18894,31.7
18896,20.1
18898,49.3
18899,25.7
18901,34.8
18903,35.6
18904,35.8
18908,18.7
18909,16.2
18911,28.8
18915,3.6
18919,26.9
18923,13.3
18924,23.6
18925,35.9
18926,17.4
18930,16.3
18933,20.9
18935,51.9
18936,24.4
18937,35.4
18940,32.7
18941,37.1
18942,4.7
18943,31.8
18944,4.1
18948,28.8
18949,18.6
18950,11.1
18952,15.6
18953,6.9
18955,24.7
18958,8.6
18961,31.3
18962,27.1
18963,3.2
18964,22.5
18965,36.2
18966,36.8
18968,12.9
18969,8.2
18973,8.2
18975,9.3
18979,37.8
18981,11.2
18984,0.5
18987,31.9
18988,10.2
18989,24.4
18991,10.7
18992,12.6
18996,57.1
18999,2.9
19000,17.2
19002,28.9
19006,3.0
19007,34.2
19008,31.3
19010,38.0
19014,23.5
19016,39.0
19017,28.9
19019,27.8
19020,26.2
19021,2.1
19024,25.3
19025,26.9
19028,9.2
19031,18.6
19032,35.4
19033,14.3
19034,21.0
19037,7.3
19041,13.6
19042,7.2
19043,15.1
19044,20.3
19045,33.7
19046,-9.8
19047,3.3
19051,16.5
19053,37.7
19055,11.6
19057,35.7
19058,44.2
19059,23.1
19060,12.9
19062,20.2
19064,38.0
19068,11.3
19070,21.0
19071,6.4
19072,24.0
19073,30.6
19077,32.4
19078,31.8
19083,5.6
19087,11.7
19090,15.8
19094,38.6
19095,51.9
19097,36.4
19101,22.1
19103,2.2
19104,11.4
19106,18.9
19107,26.2
19110,30.9
19111,13.5
19113,7.0
19114,14.7
19116,3.1
19117,23.2
19120,33.9
19121,38.9
19122,18.1
19123,22.1
19125,38.5
19128,22.7
19129,3.0
19132,10.8
19134,8.9
19135,10.7
19136,24.4
19138,6.9
19139,6.6
19142,35.7
19144,-4.7
19146,36.8
19147,3.3
19150,36.2
19153,25.6
19154,29.2
19155,14.4
19156,49.3
19157,17.2
19158,17.8
19162,9.9
19163,24.5
19164,23.9
19165,7.0
19168,32.8
19170,28.8
19172,23.5
19174,31.5
19177,8.1
19178,35.7
19182,10.8
19183,20.9
19185,33.4
19187,28.6
19188,11.6
19190,8.0
19193,13.8
19194,54.5
19196,15.8
19197,17.5
19199,23.9
19204,6.3
19207,31.3
19212,36.8
19216,23.9
19219,28.8
19221,13.8
19222,6.4
19223,2.3
19224,9.4
19225,8.9
19226,23.2
19229,2.3
19230,2.2
19232,8.2
19234,14.3
19236,28.7
19237,8.8
19238,20.5
19239,14.9
19241,5.0
19242,37.7
19244,0.5
19246,7.6
19247,8.1
19249,28.7
19252,30.6
19254,5.1
19255,54.5
19256,35.7
19258,15.7
19260,15.9
19263,12.3
19266,17.1
19267,31.3
19269,22.1
19274,25.5
19276,27.0
19278,28.5
19279,23.6
19282,4.1
19284,35.7
19285,17.4
19286,7.0
19290,19.7
19292,28.8
19294,26.7
19296,2.7
19298,5.7
19300,8.5
19301,27.9
19302,23.7
19305,-7.2
19307,11.6
19309,8.5
19312,3.9
19316,35.0
19317,41.6
19319,17.1
19322,20.3
19324,36.5
19327,15.0
19328,29.9
19330,23.6
19333,37.4
19334,32.6
19337,9.7
19338,23.8
19339,16.2
19340,38.2
19342,5.6
19343,7.4
19344,11.0
19348,23.1
19349,17.1
19350,28.9
19352,2.4
19353,54.5
19354,3.9
19357,5.3
19364,11.9
19365,18.9
19366,28.8
19368,24.6
19373,10.7
19375,17.3
19379,28.8
19380,4.9
19381,30.2
19387,22.2
19391,10.8
19392,21.0
19397,5.8
19401,26.1
19403,-7.2
19406,2.3
19408,15.9
19409,29.4
19411,23.5
19416,46.8
19417,20.9
19419,39.3
19421,39.1
19422,27.4
19423,3.1
19424,6.9
19429,28.8
19433,4.8
19434,7.0
19435,6.5
19437,23.4
19441,10.8
19442,22.9
19443,29.4
19448,6.8
19449,10.6
19450,7.7
19452,23.5
19453,54.5
19459,34.0
19463,33.6
19466,31.3
19467,23.9
19473,34.3
19474,30.7
19476,24.2
19478,26.2
19480,21.2
19482,24.5
19483,5.9
19484,22.3
19485,37.6
19490,13.3
19494,36.5
19496,36.8
19500,32.8
19502,4.9
19503,34.0
19504,-9.8
19510,32.5
19511,26.5
19513,5.2
19515,24.9
19516,46.8
19519,39.0
19524,36.4
19528,26.2
19529,19.7
19531,33.6
19533,19.5
19534,28.4
19535,6.2
19537,32.1
19538,13.8
19540,8.2
19541,9.0
19543,23.3
19544,19.8
19546,11.1
19552,51.9
19554,17.7
19556,16.6
19558,15.1
19559,5.0
19560,37.2
19565,23.6
19568,11.0
19570,4.7
19572,13.4
19573,23.9
19574,39.1
19575,32.1
19577,33.9
19578,19.9
19580,19.1
19581,30.9
19584,26.5
19588,28.9
19589,19.5
19590,13.3
19591,8.5
19593,30.6
19595,13.3
19597,26.1
19598,9.5
19600,35.6
19602,-2.1
19603,34.7
19604,25.7
19606,19.6
19609,20.8
19611,24.9
19612,34.9
19613,15.8
19614,49.3
19615,6.2
19618,36.4
19619,30.6
19621,34.4
19622,10.5
19623,21.7
19626,27.7
19627,3.6
19628,28.8
19631,8.0
19632,36.8
19633,3.8
19639,32.6
19640,13.3
19642,12.3
19644,22.3
19646,2.7
19648,13.3
19651,13.1
19652,51.9
19653,24.1
19657,17.9
19659,3.9
19661,3.2
19662,3.9
19663,12.9
19664,28.8
19665,24.9
19668,17.9
19669,15.5
19670,10.7
19672,17.8
19677,31.3
19678,12.9
19679,8.4
19680,16.5
19681,31.6
19682,28.4
19684,7.3
19685,15.9
19689,10.8
19690,24.6
19693,37.1
19694,10.4
19697,31.7
19698,10.8
19699,24.6
19701,5.2
19702,-4.7
19703,38.4
19705,37.1
19706,25.9
19708,4.2
19709,5.8
19711,14.6
19713,19.7
19715,49.3
19716,6.1
19719,29.0
19721,30.6
19722,9.0
19723,8.9
19726,13.8
19727,26.2
19728,4.5
19729,20.7
19730,34.9
19731,18.0
19732,38.8
19733,2.5
19734,2.4
19737,4.5
19739,10.8
19740,12.1
19741,36.9
19743,32.3
19744,10.3
19746,14.5
19751,54.5
19755,22.0
19759,30.0
19762,19.0
19763,13.6
19765,28.8
19767,8.0
19768,22.5
19769,11.2
19774,32.2
19777,31.3
19778,30.9
19779,31.0
19780,25.4
19782,28.0
19784,36.6
19786,20.3
19787,20.1
19789,10.8
19790,37.5
19791,39.4
19794,11.5
19797,24.6
19799,32.0
19800,8.3
19801,31.2
19802,-9.8
19804,8.2
19806,13.4
19807,29.7
19808,11.0
19810,14.3
19812,3.6
19814,46.8
19817,9.7
19818,25.0
19820,2.6
19821,3.4
19825,38.9
19827,26.2
19830,4.1
19832,13.4
19833,19.2
19834,4.6
19836,33.9
19840,8.2
19841,13.8
19848,7.5
19849,21.1
19851,49.3
19853,11.5
19855,30.0
19856,14.3
19858,11.9
19860,37.7
19862,29.1
19863,21.0
19864,12.8
19865,26.4
19866,6.7
19868,25.5
19870,24.8
19871,29.5
19875,36.5
19877,30.5
19888,13.3
19891,29.9
19892,18.8
19895,15.8
19897,34.8
19898,38.0
19901,-2.1
19903,10.5
19904,9.5
19905,38.3
19906,28.0
19909,17.2
19911,2.7
19912,14.1
19913,49.3
19915,10.1
19918,31.6
19919,24.4
19920,9.0
19922,39.7
19923,15.2
19925,21.5
19926,28.8
19928,23.2
19930,10.5
19931,19.4
19932,11.4
19935,32.3
19936,21.4
19938,15.9
19939,35.9
19941,11.4
19944,37.5
19946,10.8
19948,14.9
19949,25.9
19950,54.5
19951,33.9
19952,9.9
19953,8.9
19954,10.7
19955,13.8
19956,34.1
19957,7.8
19959,30.8
19963,26.2
19964,37.5
19970,2.8
19974,23.7
19976,31.3
19977,16.2
19978,29.2
19979,19.4
19980,4.1
19982,10.7
19983,3.7
19985,36.8
19987,17.2
19988,10.8
19992,6.8
19993,33.2
19994,14.4
19995,33.1
19997,20.5
19998,5.4
20000,-4.7
20003,38.0
20005,14.3
20007,34.6
20009,4.1
20013,46.8
20016,24.3
20017,38.7
20018,26.1
20019,28.5
20023,12.4
20024,7.8
20025,28.8
20028,26.6
20029,28.1
20030,13.4
20032,15.0
20034,13.6
20036,5.0
20038,13.3
20039,25.6
20041,16.1
20042,16.1
20044,5.3
20046,14.2
20050,54.5
20055,21.4
20056,32.9
20061,37.8
20063,28.8
20065,31.3
20067,4.9
20068,5.5
20070,11.5
20071,39.1
20074,39.0
20075,31.3
20076,15.1
20078,2.8
20080,29.2
20081,10.5
20082,28.2
20083,25.2
20086,11.6
20087,8.2
20090,31.0
20094,4.6
20095,29.1
20096,19.9
20099,14.7
20100,0.5
20101,20.9
20102,30.7
20104,15.6
20105,38.1
20106,36.0
20110,16.9
20111,54.5
20115,32.3
20116,8.6
20117,21.6
20123,33.9
20124,26.7
20126,39.3
20128,17.6
20134,2.7
20135,26.2
20138,31.8
20144,6.6
20148,26.2
20149,17.6
20151,34.1
20153,4.8
20156,27.4
20157,22.4
20160,15.9
20161,-9.8
20164,38.0
20165,18.4
20168,14.0
20172,2.4
20173,44.2
20174,31.6
20179,19.4
20182,37.7
20183,13.9
20184,13.0
20185,4.1
20186,23.6
20188,25.1
20189,27.1
20192,21.0
20198,5.6
20199,15.6
20203,26.8
20207,24.6
20209,54.5
20211,19.5
20213,4.9
20214,9.2
20215,10.2
20218,38.6
20219,2.9
20220,37.5
20221,28.8
20222,3.6
20226,31.1
20228,3.4
20232,3.7
20233,36.8
20235,31.3
20237,31.1
20239,17.9
20242,5.6
20245,3.9
20247,13.3
20248,10.2
20250,7.7
20251,33.6
20254,21.9
20256,23.2
20257,22.4
20258,9.9
20259,-7.2
20260,12.7
20263,39.0
20264,16.8
20265,6.4
20267,37.7
20268,23.1
20270,6.3
20271,38.7
20272,46.8
20274,20.0
20275,22.4
20277,15.4
20279,22.0
20280,28.0
20284,28.8
20285,37.4
20287,37.4
20288,3.7
20290,15.3
20291,3.3
20292,24.5
20295,14.7
20297,8.2
20299,17.2
20301,23.2
20302,30.8
20303,16.4
20305,8.7
20308,46.8
20310,3.3
20311,20.2
20313,7.9
20314,20.6
20315,33.3
20317,29.5
20320,39.4
20321,18.5
20323,6.3
20324,27.4
20325,34.9
20326,19.0
20327,26.0
20329,19.4
20333,36.5
20334,15.4
20336,12.7
20337,19.7
20343,10.5
20345,13.3
20346,29.5
20349,31.7
20350,38.5
20352,10.4
20354,31.2
20355,24.9
20358,38.2
20359,-2.1
20362,21.8
20366,24.7
20368,25.9
20369,23.6
20371,49.3
20372,5.9
20373,11.7
20374,39.1
20376,25.1
20377,9.8
20380,19.5
20382,5.0
20383,28.8
20386,16.7
20388,12.0
20389,3.3
20390,18.5
20391,22.0
20392,29.5
20396,15.9
20397,19.1
20398,4.6
20399,23.3
20400,31.0
20406,35.9
20407,5.2
20408,49.3
20409,13.6
20411,18.4
20412,15.3
20414,25.1
20415,15.9
20416,17.3
20417,39.9
20418,11.5
20420,21.0
20423,30.5
20424,21.1
20425,36.8
20428,26.9
20430,10.0
20431,37.4
20433,33.9
20436,2.6
20438,3.2
20440,15.3
20442,33.7
20445,15.2
20446,13.3
20447,14.6
20449,32.1
20454,11.1
20455,19.8
20458,-2.1
20460,20.1
20465,32.2
20466,2.7
20467,9.6
20469,16.4
20470,51.9
20473,28.1
20474,20.3
20478,24.5
20479,8.1
20483,28.8
20485,17.8
20491,16.1
20492,22.8
20496,15.9
20499,27.6
20504,2.5
20508,51.9
20509,5.9
20510,12.0
20515,4.2
20516,38.2
20517,38.3
20518,13.0
20519,14.2
20520,26.2
20522,27.0
20525,39.9
20527,13.2
20528,39.7
20529,21.3
20531,30.3
20533,31.3
20534,3.4
20535,23.4
20536,36.9
20538,34.0
20539,23.6
20542,20.8
20543,26.0
20544,11.0
20545,10.8
20546,21.4
20547,7.1
20548,16.3
20550,16.9
20552,2.5
20556,32.3
20558,-4.7
20559,31.3
20561,11.5
20562,10.4
20568,27.5
20569,3.0
20570,24.0
20571,49.3
20573,13.1
20575,13.9
20576,25.4
20577,25.5
20581,10.6
20582,2.7
20583,26.2
20586,28.3
20588,29.1
20595,13.3
20596,6.0
20600,39.7
20601,23.5
20603,26.5
20604,13.9
20607,12.3
20608,54.5
20612,30.7
20613,7.8
20615,25.5
20616,28.3
20617,15.7
20620,28.8
20621,21.8
20624,32.3
20625,8.0
20626,14.8
20628,19.2
20629,14.4
20631,17.4
20633,31.3
20635,2.2
20637,6.8
20642,3.4
20644,10.5
20645,8.2
20646,38.2
20647,3.5
20651,16.5
20653,19.8
20654,34.4
20656,39.1
20657,-2.1
20658,5.9
20660,15.7
20661,27.1
20669,51.9
20670,21.7
20671,30.0
20672,33.4
20673,5.9
20674,21.6
20675,25.9
20676,31.3
20681,31.3
20682,21.3
20683,36.5
20684,14.8
20685,17.7
20687,18.4
20694,29.0
20695,18.5
20697,32.4
20699,34.3
20703,10.3
20705,6.8
20706,22.0
20707,46.8
20709,13.2
20710,12.5
20712,26.1
20713,3.3
20716,23.2
20717,32.4
20718,17.8
20719,21.0
20721,14.4
20722,20.0
20723,25.2
20724,33.5
20726,32.8
20730,34.5
20731,33.9
20732,12.7
20733,13.5
20735,2.6
20740,8.1
20743,39.1
20744,13.3
20745,28.4
20746,7.7
20748,22.4
20750,33.8
20751,9.3
20753,4.7
20754,35.0
20756,-2.1
20758,10.9
20759,4.9
20760,15.9
20762,10.6
20763,4.8
20766,33.8
20769,51.9
20772,6.2
20774,22.3
20778,28.4
20782,31.3
20783,16.4
20784,16.5
20785,24.3
20790,6.6
20794,13.3
20796,12.0
20798,6.6
20801,31.0
20802,27.4
20804,17.5
20806,51.9
20807,16.6
20810,2.9
20811,19.3
20812,31.7
20813,5.5
20816,21.1
20817,33.7
20818,23.6
20820,6.7
20824,5.9
20825,24.0
20826,32.4
20827,6.8
20828,14.0
20829,38.0
20830,38.3
20831,27.7
20832,31.3
20836,7.4
20837,13.5
20839,20.5
20840,23.3
20842,27.4
20844,13.3
20845,10.0
20846,4.4
20847,3.7
20848,11.9
20853,12.7
20856,-4.7
20857,9.5
20858,4.7
20859,5.9
20860,37.9
20861,40.0
20863,23.4
20864,5.9
20866,2.4
20867,39.4
20869,49.3
20871,37.0
20872,28.5
20873,10.8
20874,14.0
20876,6.4
20877,35.2
20881,28.8
20883,27.4
20885,13.8
20888,19.1
20889,21.1
20894,13.3
20895,17.7
20898,23.8
20899,12.4
20901,3.8
20902,40.0
20904,16.7
20907,51.9
20911,5.8
20918,27.1
20919,28.8
20921,21.1
20922,22.0
20929,4.6
20930,9.5
20931,28.8
20932,12.0
20935,32.7
20936,31.0
20937,16.8
20941,14.0
20943,10.8
20944,6.8
20946,31.1
20947,19.4
20955,27.1
20956,-7.2
20958,20.0
20960,12.2
20961,4.1
20962,29.6
20969,49.3
20970,3.0
20972,10.2
20973,39.7
20977,19.1
20980,11.8
20981,26.2
20982,25.8
20986,25.3
20987,38.8
20988,19.1
20989,25.0
20992,10.7
20994,10.8
20995,25.1
20996,28.9
21000,16.9
21005,38.8
21006,54.5
21008,25.4
21010,5.4
21011,33.0
21012,17.4
21013,13.4
21015,2.2
21016,16.6
21017,10.5
21018,28.8
21019,18.2
21022,32.7
21023,15.3
21024,37.7
21027,28.7
21029,23.1
21031,28.8
21038,15.2
21039,37.2
21041,17.1
21042,5.3
21044,13.3
21045,33.8
21046,5.1
21048,39.9
21051,24.9
21053,26.5
21054,13.2
21055,31.9
21056,-9.8
21058,8.3
21059,10.6
21062,3.4
21065,37.4
21066,2.8
21067,12.7
21068,44.2
21069,13.0
21071,21.8
21072,19.6
21073,13.4
21074,23.3
21077,31.4
21081,23.6
21084,26.2
21085,33.0
21091,24.5
21093,21.3
21094,8.2
21095,21.6
21099,19.8
21104,36.1
21105,51.9
21106,11.4
21107,32.7
21111,3.0
21114,4.0
21117,21.0
21118,35.9
21119,32.3
21120,2.1
21121,4.7
21122,20.5
21124,38.3
21126,34.7
21127,26.8
21128,13.9
21129,36.5
21130,33.9
21134,24.6
21136,32.7
21137,33.0
21139,37.5
21142,10.8
21143,18.9
21147,5.9
21151,37.4
21152,4.8
21154,-4.7
21156,6.1
21157,28.7
21159,18.1
21160,4.0
21164,3.4
21165,25.4
21168,49.3
21169,8.5
21170,5.5
21172,12.9
21173,5.3
21174,38.9
21176,15.6
21177,34.3
21180,28.8
21182,18.1
21183,12.6
21185,10.8
21188,27.3
21192,13.3
21199,21.7
21204,54.5
21205,27.2
21208,29.8
21212,39.4
21214,37.2
21215,16.2
21217,26.2
21223,8.1
21226,23.6
21228,6.1
21230,31.3
21233,31.5
21236,3.0
21239,10.0
21240,10.9
21242,13.3
21244,11.3
21248,2.0
21249,37.6
21250,4.1
21252,25.5
21253,32.3
21255,-7.2
21256,24.2
21261,16.6
21263,17.4
21267,46.8
21271,15.2
21273,29.3
21279,28.8
21283,29.3
21291,38.4
21292,25.3
21293,10.8
21294,26.6
21297,19.3
21298,5.9
21299,19.3
21300,38.5
21301,35.0
21302,31.0
21305,54.5
21307,28.4
21310,7.9
21312,21.2
21313,29.3
21314,7.8
21316,36.9
21317,31.3
21319,32.1
21329,31.3
21332,32.8
21334,33.3
21337,34.1
21338,16.3
21341,14.5
21342,8.2
21344,27.1
21349,33.8
21352,7.8
21353,-2.1
21354,20.2
21356,32.9
21363,23.0
21364,27.2
21365,11.9
21366,51.9
21368,5.0
21371,37.2
21373,11.2
21375,23.9
21378,32.1
21379,31.3
21380,36.0
21381,20.3
21383,25.1
21386,18.7
21390,3.3
21391,15.9
21394,2.2
21396,15.8
21398,26.4
21399,20.2
21400,10.7
21401,14.1
21403,49.3
21405,25.1
21415,21.0
21417,6.5
21418,29.2
21419,16.8
21420,14.9
21422,16.9
21423,32.8
21425,23.2
21427,9.1
21428,35.3
21429,33.9
21431,30.5
21432,16.9
21435,17.2
21438,33.1
21439,22.3
21441,13.3
21444,24.6
21445,2.6
21447,37.7
21448,27.2
21450,25.9
21451,14.5
21453,-2.1
21454,20.5
21455,34.2
21456,10.8
21457,29.3
21461,11.5
21463,7.0
21464,28.4
21466,49.3
21468,39.3
21470,29.5
21472,39.5
21474,17.1
21475,30.4
21476,38.7
21478,31.3
21479,15.8
21480,6.8
21481,33.7
21482,26.6
21485,14.5
21486,25.6
21489,8.6
21491,15.9
21494,39.4
21495,2.3
21496,27.3
21497,31.8
21498,32.3
21499,6.2
21501,31.3
21502,4.1
21503,33.1
21504,51.9
21505,18.1
21506,17.8
21507,34.2
21508,19.5
21510,23.4
21511,31.9
21513,38.8
21515,30.4
21516,23.6
21517,25.8
21518,5.1
21523,38.0
21525,34.5
21527,2.0
21528,33.9
21532,27.6
21535,23.1
21540,13.3
21546,7.3
21547,31.0
21550,22.2
21551,13.5
21553,-4.7
21554,38.9
21558,33.6
21559,25.7
21561,31.0
21562,28.1
21563,35.8
21564,28.9
21566,49.3
21568,23.3
21569,17.4
21573,6.9
21575,27.6
21578,28.8
21579,10.3
21580,4.3
21583,27.3
21586,22.1
21587,20.8
21591,10.8
21592,35.8
21594,39.2
21595,38.1
21598,11.3
21599,39.7
21602,34.5
21603,51.9
21606,37.7
21608,38.8
21613,29.5
21615,28.8
21616,4.7
21620,7.3
21621,39.5
21623,31.3
21624,22.2
21626,7.2
21628,28.8
21629,7.3
21631,17.6
21632,30.5
21633,22.0
21635,39.4
21638,33.2
21640,6.6
21641,8.2
21643,16.6
21644,26.2
21645,25.8
21646,29.3
21647,33.5
21648,7.9
21652,0.5
21653,17.7
21661,31.1
21663,54.5
21664,28.2
21665,18.6
21670,11.1
21671,21.3
21674,14.0
21675,25.8
21676,31.3
21677,24.5
21679,17.7
21681,19.6
21682,12.4
21683,33.8
21684,7.6
21686,31.7
21688,26.2
21690,27.3
21691,29.1
21692,29.9
21693,27.0
21699,39.1
21700,7.3
21701,26.2
21704,36.2
21709,7.7
21710,35.7
21712,32.6
21713,-12.4
21714,32.6
21715,36.6
21720,8.6
21721,35.7
21722,11.1
21725,24.2
21727,36.5
21728,25.0
21731,25.7
21733,14.2
21736,34.7
21739,13.3
21740,37.6
21742,13.9
21743,36.5
21747,17.8
21748,11.8
21751,-2.1
21752,13.4
21756,21.8
21758,30.9
21760,11.4
21761,37.0
21763,25.9
21764,31.1
21765,51.9
21767,29.7
21768,18.5
21770,6.3
21771,38.9
21772,6.4
21773,13.7
21775,38.9
21776,10.4
21777,31.3
21783,18.2
21787,2.9
21789,15.9
21791,28.9
21793,2.9
21801,51.9
21806,23.4
21807,20.2
21810,34.0
21811,14.1
21812,15.2
21813,27.6
21814,26.2
21815,31.7
21816,4.1
21817,26.3
21818,16.8
21820,35.8
21821,31.6
21823,22.2
21825,37.3
21826,4.0
21827,31.3
21829,37.0
21832,23.9
21833,28.1
21834,2.6
21837,29.7
21838,38.3
21839,13.3
21844,38.2
21847,19.8
21849,6.4
21850,8.8
21851,29.5
21852,-4.7
21857,17.1
21861,29.5
21864,49.3
21866,10.2
21871,9.2
21872,21.3
21874,4.8
21876,28.8
21878,32.3
21879,8.7
21880,14.1
21885,27.0
21886,24.4
21889,15.9
21891,38.2
21892,19.8
21895,10.6
21897,19.3
21898,36.8
21899,23.7
21900,24.9
21902,51.9
21903,15.6
21909,20.6
21912,24.0
21914,26.2
21915,31.0
21918,4.6
21924,38.5
21926,28.8
21927,33.0
21929,11.7
21930,19.2
21934,27.9
21938,4.8
21939,10.8
21942,20.2
21944,10.2
21945,16.9
21949,37.1
21951,-4.7
21954,2.5
21955,29.0
21956,18.2
21957,38.5
21960,16.9
21964,46.8
21967,26.8
21968,34.8
21970,6.0
21973,8.1
21975,38.0
21976,13.1
21977,26.2
21979,34.3
21983,9.8
21984,3.2
21987,2.5
21989,10.8
21990,3.6
21992,17.1
21995,11.5
22001,54.5
22005,30.2
22008,21.3
22009,7.6
22011,38.6
22013,28.8
22017,25.9
22018,39.8
22019,23.2
22021,21.4
22022,10.5
22024,36.5
22027,28.8
22029,34.9
22030,32.4
22033,3.5
22036,19.9
22038,29.2
22039,8.2
22043,21.9
22050,0.5
22051,5.2
22053,26.2
22054,10.7
22055,18.2
22057,15.4
22058,36.9
22059,22.7
22061,7.7
22062,57.1
22063,2.1
22065,7.1
22069,4.4
22071,19.1
22072,2.9
22073,13.2
22074,33.9
22075,22.7
22076,11.6
22078,27.6
22080,18.6
22082,29.2
22086,26.2
22087,20.6
22088,28.5
22089,31.0
22090,10.0
22091,17.0
22095,4.5
22097,25.7
22099,28.8
22101,29.8
22109,15.4
22112,-7.2
22113,5.5
22114,29.0
22116,2.7
22119,15.8
22121,5.1
22122,21.5
22123,25.5
22124,41.6
22128,28.2
22132,31.2
22135,29.0
22136,21.0
22143,6.9
22144,35.3
22145,9.9
22146,3.8
22147,10.0
22149,3.0
22150,2.4
22157,19.2
22158,6.9
22159,14.2
22160,7.8
22161,54.5
22163,26.9
22165,10.8
22166,28.8
22170,9.2
22173,28.8
22174,12.3
22175,7.4
22177,33.1
22178,12.4
22181,39.8
22182,14.6
22185,31.3
22188,9.8
22189,6.4
22193,18.5
22198,8.2
22199,23.8
22201,34.3
22202,23.3
22204,34.8
22206,6.3
22207,17.8
22209,0.5
22211,17.1
22212,6.7
22215,33.9
22217,31.8
22219,25.3
22220,54.5
22221,33.8
22223,19.9
22224,27.7
22225,2.4
22230,9.8
22232,2.1
22233,16.2
22234,31.3
22238,36.6
22239,4.4
22244,2.7
22246,23.6
22248,5.8
22249,16.9
22252,24.1
22253,2.2
22256,28.1
22258,26.2
22259,12.9
22263,32.0
22265,14.6
22268,3.0
22269,14.5
22270,-9.8
22273,26.9
22275,20.6
22277,13.4
22278,24.0
22280,17.7
22281,28.3
22282,21.6
22283,44.2
22293,24.3
22294,13.2
22296,21.0
22297,6.5
22299,2.2
22300,33.1
22301,26.9
22307,38.6
22308,5.6
22309,17.5
22310,23.8
22311,28.8
22312,5.8
22314,29.3
22317,9.4
22319,14.5
22320,54.5
22321,8.2
22324,14.6
22325,8.1
22326,11.3
22330,8.2
22332,28.8
22335,27.1
22338,39.2
22342,37.5
22344,31.3
22345,14.3
22346,33.8
22348,9.3
22351,19.3
22354,18.9
22355,13.6
22356,15.3
22358,8.2
22363,12.3
22365,4.2
22366,28.6
22369,0.5
22370,29.1
22371,20.9
22372,17.4
22373,37.7
22375,30.4
22376,27.7
22377,24.6
22379,3.8
22380,54.5
22383,6.0
22385,6.4
22388,14.5
22389,8.0
22390,14.3
22392,33.9
22398,21.2
22402,18.5
22403,8.9
22404,18.9
22405,26.2
22410,22.6
22413,22.5
22414,17.3
22416,10.4
22417,21.0
22420,39.4
22422,12.5
22423,24.3
22424,38.8
22427,2.8
22428,36.5
22429,15.6
22430,-9.8
22431,36.3
22434,35.9
22435,21.3
22436,28.9
22438,24.5
22439,6.5
22441,22.7
22442,4.6
22443,44.2
22444,35.8
22449,34.0
22451,33.4
22452,7.0
22455,23.6
22456,25.1
22458,35.9
22459,16.0
22460,28.7
22461,38.5
22462,31.2
22463,27.1
22464,15.8
22467,5.6
22470,35.4
22471,3.7
22474,30.0
22476,15.4
22477,17.5
22478,51.9
22481,14.2
22483,20.8
22487,25.1
22488,34.4
22489,6.1
22492,26.2
22493,9.2
22494,19.1
22495,24.5
22496,22.8
22497,2.7
22500,13.6
22501,14.6
22504,31.3
22506,17.6
22507,7.4
22508,35.2
22512,14.4
22513,35.0
22514,6.0
22515,39.9
22516,10.8
22517,2.0
22518,23.7
22520,35.9
22522,15.6
22526,22.2
22528,19.7
22529,-4.7
22534,38.0
22536,32.3
22538,6.1
22541,49.3
22542,15.2
22545,37.3
22550,8.4
22552,6.4
22553,28.8
22555,9.8
22557,16.4
22560,21.8
22561,31.5
22562,4.3
22563,36.8
22564,9.4
22566,10.8
22568,19.4
22571,27.9
22575,4.7
22576,27.5
22579,54.5
22582,26.2
22584,35.7
22586,24.3
22587,29.4
22590,2.3
22591,28.8
22594,39.6
22598,20.8
22599,16.8
22600,6.0
22603,28.8
22604,6.4
22612,11.4
22615,33.8
22616,8.2
22617,25.0
22618,26.3
22623,23.9
22627,34.7
22628,0.5
22633,24.6
22635,19.7
22638,26.1
22639,54.5
22641,37.3
22647,28.4
22648,37.5
22649,36.7
22650,34.5
22651,31.3
22652,10.4
22653,21.8
22655,20.5
22657,22.6
22658,21.7
22660,15.4
22661,33.5
22664,26.2
22666,21.5
22668,29.9
22670,38.6
22671,23.3
22674,25.4
22675,17.1
22676,26.2
22685,26.8
22686,22.8
22689,-9.8
22690,31.1
22691,31.5
22693,38.8
22696,19.8
22697,28.5
22699,3.9
22702,41.6
22707,36.6
22708,23.6
22714,21.0
22715,26.5
22716,19.9
22717,20.9
22718,12.8
22721,24.1
22726,5.6
22728,25.2
22730,31.8
22732,29.7
22733,33.3
22734,31.7
22737,54.5
22738,13.9
22739,28.0
22744,26.4
22745,11.6
22748,32.4
22749,12.5
22750,28.8
22751,34.3
22756,3.6
22757,17.3
22760,36.4
22762,8.5
22763,31.3
22764,18.2
22766,16.7
22768,31.3
22770,15.0
22774,26.9
22775,8.2
22777,13.3
22779,19.2
22781,15.5
22784,23.6
22787,0.5
22788,28.2
22790,3.2
22791,32.4
22794,11.8
22797,15.0
22798,51.9
22800,26.8
22801,21.6
22804,37.0
22806,21.6
22807,38.3
22808,26.2
22809,34.8
22810,31.3
22813,30.1
22815,19.6
22816,25.0
22817,31.7
22818,38.7
22819,15.8
22823,23.6
22827,34.5
22828,19.1
22830,30.7
22831,37.0
22832,20.9
22834,17.8
22836,23.6
22839,39.5
22842,23.0
22845,16.4
22847,22.0
22848,-9.8
22852,39.8
22859,10.3
22860,44.2
22861,13.7
22866,3.5
22868,34.0
22870,28.4
22873,21.0
22874,4.2
22875,18.8
22879,27.5
22882,32.6
22883,33.9
22885,8.2
22886,19.7
22888,16.7
22890,35.4
22891,28.1
22897,51.9
22898,34.7
22902,14.0
22904,3.0
22905,25.8
22906,20.7
22909,28.8
22910,22.3
22911,16.7
22912,8.0
22917,9.2
22918,29.2
22919,21.0
22921,12.7
22922,31.3
22923,11.0
22924,9.2
22925,24.1
22927,25.0
22930,6.9
22931,23.1
22934,10.8
22936,27.9
22938,3.6
22939,9.1
22940,5.3
22941,40.0
22943,7.3
22944,33.2
22946,-7.2
22948,32.4
22954,14.0
22956,8.0
22958,11.0
22959,28.4
22960,49.3
22961,29.0
22969,32.7
22970,12.8
22971,19.1
22972,26.2
22975,12.0
22979,28.2
22983,9.2
22984,10.8
22985,38.8
22987,11.3
22990,20.3
22991,4.8
22992,18.1
22993,25.3
22994,35.7
22995,24.2
22996,54.5
22999,29.0
23007,13.9
23008,15.1
23009,31.3
23012,19.2
23016,39.6
23017,36.7
23019,7.7
23020,3.6
23021,6.3
23022,28.8
23023,11.6
23024,9.4
23025,39.0
23026,12.1
23027,37.5
23034,8.2
23036,15.7
23037,12.4
23039,19.9
23040,16.9
23042,31.1
23044,6.1
23045,23.4
23046,0.5
23048,37.2
23053,24.7
23055,38.3
23056,7.6
23057,54.5
23058,27.7
23059,30.7
23064,2.5
23066,17.9
23068,3.1
23069,31.3
23073,29.9
23074,5.9
23077,7.8
23078,35.0
23080,36.4
23081,26.2
23082,22.6
23083,11.0
23086,29.0
23087,3.0
23089,16.7
23093,12.8
23094,23.2
23095,26.2
23096,15.4
23098,27.5
23100,37.6
23103,16.1
23105,14.3
23107,-7.2
23109,37.7
23110,24.1
23112,3.9
23113,38.8
23114,10.1
23118,14.6
23119,41.6
23122,2.3
23123,20.9
23124,31.2
23126,25.0
23127,27.5
23132,21.0
23134,37.1
23135,10.2
23136,26.6
23137,20.6
23140,34.6
23141,9.3
23142,29.5
23144,5.6
23145,4.3
23147,27.8
23149,17.6
23151,3.1
23152,8.8
23154,30.2
23155,11.3
23156,51.9
23160,23.5
23161,29.4
23164,39.4
23165,33.7
23166,38.0
23167,18.1
23168,37.3
23169,26.2
23170,2.7
23171,38.0
23174,9.0
23175,4.4
23177,18.9
23181,31.3
23182,38.1
23185,27.7
23186,17.2
23188,19.4
23189,25.0
23192,18.4
23193,10.8
23195,37.7
23198,19.6
23199,36.9
23204,4.6
23205,-7.2
23206,14.9
23209,6.1
23211,3.5
23212,9.9
23214,34.2
23215,11.6
23218,49.3
23219,25.2
23220,19.4
23221,24.8
23224,36.0
23226,36.7
23230,16.5
23231,26.2
23232,29.7
23233,22.9
23234,9.4
23237,11.0
23239,28.1
23240,10.8
23243,10.8
23244,29.9
23245,34.5
23248,4.8
23249,24.7
23256,54.5
23257,24.0
23258,16.4
23259,26.7
23265,7.6
23266,2.1
23267,14.8
23268,31.3
23269,2.9
23272,5.2
23273,8.6
23275,17.9
23278,34.9
23279,36.1
23280,28.8
23281,6.8
23282,7.5
23283,10.9
23286,19.6
