0,67.4
1,121.5
2,85.4
4,104.0
5,87.9
6,161.3
7,75.1
9,137.1
10,90.5
11,97.7
12,98.2
15,87.9
17,75.1
19,116.5
20,106.7
21,140.6
24,138.6
25,90.5
26,163.1
27,103.3
31,116.7
32,139.4
34,90.5
36,145.0
37,141.5
40,90.7
41,126.4
42,114.4
44,95.6
46,101.2
48,160.7
50,91.8
53,93.1
54,112.0
56,129.0
58,152.7
59,123.8
61,138.4
63,98.2
68,171.8
69,95.2
72,100.8
76,125.9
78,140.7
79,129.7
81,136.1
82,100.8
84,135.4
86,138.8
90,115.2
93,103.4
94,145.7
95,110.9
97,118.9
99,140.7
103,103.4
106,136.8
108,123.3
111,96.2
112,131.7
114,93.1
120,155.8
121,155.8
122,159.5
125,93.1
129,99.2
130,127.9
132,113.7
136,82.8
137,127.6
146,85.4
147,167.4
148,118.2
149,122.7
155,137.7
156,82.8
158,156.3
160,98.8
162,121.2
163,153.7
164,133.8
165,111.7
166,85.4
169,115.9
170,155.0
177,82.8
184,103.7
186,142.5
187,93.1
193,156.1
198,75.1
201,161.8
202,116.8
205,104.0
208,95.6
209,158.5
210,170.9
211,103.5
212,101.4
213,127.6
214,122.5
216,113.8
219,75.1
224,139.4
225,95.0
226,158.9
228,104.7
229,105.9
230,133.8
231,110.7
232,132.6
234,153.2
235,90.0
236,161.9
238,137.0
240,93.1
241,105.6
242,144.6
244,93.4
246,129.6
248,144.7
250,108.5
251,134.4
255,109.4
256,138.8
258,128.8
260,158.3
262,151.0
263,98.2
264,98.7
267,118.5
271,170.7
272,109.4
273,95.6
275,102.2
276,168.7
283,105.9
284,154.6
285,165.0
293,93.9
294,90.5
295,107.5
296,145.7
297,149.1
299,152.3
304,123.1
305,93.1
306,138.6
308,161.3
309,138.9
312,142.9
313,91.4
315,93.1
316,169.4
317,119.3
318,114.0
320,135.8
321,152.9
326,90.5
329,105.7
336,87.9
338,125.9
340,134.4
343,159.3
344,171.2
347,93.1
348,125.4
350,136.7
356,131.2
357,77.6
362,129.3
364,149.1
365,91.6
366,99.7
367,98.2
368,128.7
370,124.0
371,142.7
373,92.9
374,99.3
375,151.5
376,125.1
377,77.6
380,162.9
381,100.1
382,108.9
383,165.4
384,114.8
386,169.5
387,100.8
388,105.9
390,138.8
392,93.5
394,129.7
395,144.6
400,93.1
403,168.3
408,135.8
410,108.5
411,166.2
413,157.1
414,120.7
415,114.7
417,93.2
419,101.6
421,98.2
423,153.8
427,99.6
430,164.6
431,140.1
432,90.5
434,125.8
438,129.2
442,95.6
445,115.9
449,124.9
450,104.6
452,93.1
459,167.0
460,104.8
463,95.6
464,139.9
467,117.2
468,107.7
469,142.1
471,144.1
473,126.0
474,87.9
477,92.4
478,130.9
479,129.4
482,121.9
483,134.4
484,85.4
485,146.1
486,116.7
487,139.0
489,139.3
493,116.8
494,85.4
497,97.9
498,157.6
501,109.0
504,85.4
506,108.5
507,90.5
510,158.1
512,169.5
513,113.6
515,82.8
519,149.7
520,107.9
522,103.6
523,158.0
524,163.8
526,90.5
528,94.6
530,150.8
532,122.3
534,144.0
536,87.9
538,167.6
539,166.3
544,95.6
545,148.8
546,98.2
547,128.7
555,165.7
557,82.8
558,142.5
559,141.9
563,128.0
566,102.9
567,103.4
571,153.3
573,134.0
576,134.7
577,110.2
578,85.4
579,118.4
582,116.3
584,145.4
588,108.5
589,135.4
590,104.0
591,137.9
592,115.0
593,145.9
594,118.4
595,148.4
598,115.6
599,123.3
600,170.2
601,98.2
609,116.9
610,120.2
611,98.2
614,96.9
616,95.5
617,117.6
618,94.3
619,159.8
620,93.9
621,105.9
622,115.3
625,97.6
626,126.8
628,115.2
632,90.5
635,128.7
639,152.7
640,142.4
641,119.2
643,90.5
644,101.6
648,125.9
649,133.4
651,151.0
653,85.4
654,150.0
661,99.2
664,85.4
665,154.7
667,127.8
668,119.2
669,114.6
670,156.1
672,136.8
674,85.4
675,106.4
677,113.7
678,163.9
679,106.7
680,117.3
681,130.0
684,133.8
685,87.9
687,108.2
691,100.2
694,107.9
695,80.2
696,96.8
700,154.6
701,146.4
702,109.7
704,142.8
705,90.5
706,165.3
707,170.4
708,125.0
711,93.1
712,128.9
715,77.6
718,133.9
720,104.4
721,164.9
723,95.6
725,155.1
726,129.4
727,103.4
728,129.0
734,90.8
738,87.9
741,157.8
742,125.7
747,115.9
748,116.2
751,95.1
752,104.9
754,126.5
759,105.9
760,115.1
761,116.8
762,144.2
763,166.0
765,149.8
770,129.6
771,103.4
772,156.1
773,132.0
774,98.3
775,136.3
777,98.8
779,124.8
780,129.2
781,114.0
782,93.1
784,161.3
786,130.7
787,150.3
793,85.4
794,126.3
796,121.1
797,103.3
801,156.3
803,85.4
805,138.3
806,95.4
807,115.5
808,107.2
813,122.5
814,82.8
817,138.2
818,137.2
824,85.4
825,162.9
828,141.6
831,125.3
834,82.8
835,169.7
836,118.0
838,140.0
841,137.2
842,154.8
844,93.1
846,146.5
847,99.2
848,133.6
850,135.4
853,129.3
854,137.4
855,75.1
858,133.6
860,109.2
862,166.4
864,148.1
865,103.4
866,95.6
868,147.8
872,134.3
874,123.6
875,132.8
876,72.5
880,164.2
883,104.0
886,103.4
888,114.2
889,112.7
890,166.9
891,153.7
892,114.4
894,151.6
896,163.9
898,93.1
900,144.9
902,149.4
905,137.8
906,125.9
908,105.9
910,136.0
916,161.9
917,157.6
919,95.6
920,163.0
923,116.9
924,148.2
928,118.6
929,132.6
930,93.1
931,167.5
932,150.8
936,159.1
940,94.2
941,103.4
943,101.8
945,126.2
947,137.9
950,150.0
951,140.0
952,90.5
954,163.6
956,159.3
957,158.8
962,87.9
963,157.2
965,114.5
967,134.3
969,142.4
972,90.5
976,164.4
977,127.1
980,96.7
983,87.9
984,91.2
986,116.9
988,137.6
992,114.5
993,169.2
994,82.8
995,165.9
996,156.5
997,154.8
998,155.2
1001,106.9
1002,130.7
1003,161.7
1004,90.5
1005,132.9
1011,122.1
1012,132.9
1014,96.8
1015,75.1
1016,149.5
1017,142.3
1019,107.2
1020,131.2
1021,151.7
1025,159.6
1026,99.4
1027,108.5
1029,96.7
1031,110.2
1032,170.9
1033,130.3
1034,134.2
1035,112.6
1036,165.1
1039,98.2
1043,137.3
1045,162.8
1046,91.9
1050,93.1
1056,155.2
1057,143.8
1060,161.1
1061,159.2
1062,85.4
1067,137.0
1069,159.4
1070,158.3
1072,126.5
1073,137.3
1074,77.6
1075,120.4
1080,102.1
1081,160.6
1084,165.8
1085,98.2
1087,138.0
1088,108.1
1091,154.7
1092,97.3
1094,158.0
1096,82.8
1097,115.7
1105,131.4
1107,100.8
1109,151.6
1110,151.9
1115,128.1
1116,151.4
1118,153.0
1120,93.1
1122,144.9
1123,106.0
1125,145.2
1128,91.6
1129,151.0
1132,80.2
1133,100.0
1134,109.8
1137,137.9
1138,90.9
1139,168.6
1142,133.7
1143,85.4
1144,159.9
1147,170.8
1148,115.2
1152,143.0
1154,115.8
1155,77.6
1156,99.9
1158,149.3
1160,93.5
1166,111.1
1167,94.8
1168,133.6
1172,157.8
1174,155.4
1175,160.2
1177,148.8
1178,105.9
1179,93.5
1181,116.9
1183,162.1
1184,114.5
1185,148.6
1187,106.9
1188,95.7
1190,118.1
1191,90.5
1192,147.2
1193,154.5
1194,130.7
1195,121.1
1200,123.0
1203,90.5
1204,165.0
1206,96.5
1208,146.6
1209,131.8
1211,139.2
1212,136.6
1214,75.1
1215,107.1
1216,109.8
1217,140.7
1222,147.8
1223,141.4
1224,134.7
1225,105.9
1227,170.0
1228,170.1
1232,159.0
1234,125.3
1238,100.8
1241,120.1
1243,168.4
1244,126.9
1245,110.2
1246,143.4
1248,160.6
1250,85.4
1251,157.3
1253,109.6
1254,130.0
1259,105.2
1261,118.4
1262,82.8
1263,161.9
1266,98.3
1268,113.8
1270,122.2
1272,145.7
1273,72.5
1274,93.5
1281,101.0
1282,131.7
1283,109.7
1285,98.2
1286,129.9
1290,127.5
1294,160.1
1296,80.2
1301,134.7
1304,124.6
1307,90.5
1309,152.8
1311,121.0
1312,90.4
1313,165.0
1316,114.2
1318,90.5
1319,132.7
1320,121.0
1323,110.9
1331,82.8
1334,95.6
1335,147.8
1342,82.8
1350,123.8
1351,92.9
1352,98.6
1353,75.1
1355,171.9
1358,127.9
1360,167.8
1361,142.0
1362,106.8
1364,103.4
1365,133.9
1366,157.1
1368,165.4
1369,123.6
1374,111.8
1376,170.0
1377,98.2
1379,169.0
1380,93.1
1383,144.9
1384,134.8
1385,101.1
1387,170.4
1388,93.1
1394,90.7
1396,101.7
1399,124.4
1400,87.9
1406,124.6
1407,166.6
1411,131.7
1412,82.8
1413,98.4
1416,142.0
1417,145.5
1418,127.2
1419,133.4
1423,98.2
1424,137.5
1425,138.5
1429,155.1
1431,166.0
1432,137.2
1434,77.6
1435,137.2
1436,93.7
1437,130.6
1438,111.3
1440,152.0
1443,165.2
1444,160.5
1445,103.4
1446,141.4
1447,146.7
1452,90.3
1454,104.2
1455,131.5
1457,152.6
1459,95.6
1461,112.8
1466,140.3
1470,82.8
1471,127.3
1472,112.1
1474,116.2
1477,168.8
1478,99.2
1479,148.0
1481,80.2
1482,158.2
1486,152.9
1487,134.1
1488,163.2
1492,77.6
1499,101.1
1501,130.3
1502,127.2
1503,162.8
1504,105.9
1506,91.7
1508,169.4
1509,156.1
1511,168.7
1516,95.6
1518,170.8
1521,154.7
1523,152.1
1524,158.8
1525,157.3
1527,153.6
1528,85.4
1530,152.8
1533,92.9
1536,115.0
1537,107.1
1539,131.3
1540,82.8
1541,132.9
1542,95.3
1543,130.5
1547,135.0
1548,126.3
1551,77.6
1554,151.3
1555,168.9
1556,108.2
1557,109.2
1562,98.2
1563,123.2
1569,152.4
1570,126.9
1572,158.0
1573,77.6
1574,97.7
1576,148.8
1577,139.6
1579,141.1
1580,99.2
1583,168.0
1584,105.8
1585,100.8
1588,157.7
1589,161.6
1590,169.5
1596,105.3
1597,100.5
1598,95.6
1602,100.9
1603,111.7
1609,87.9
1610,103.7
1611,93.2
1613,111.5
1620,85.4
1621,143.7
1622,104.0
1623,161.3
1626,163.3
1628,140.1
1629,149.4
1630,119.2
1632,77.6
1633,127.9
1634,90.6
1636,152.2
1643,105.9
1644,95.4
1645,94.6
1646,146.6
1647,146.5
1649,158.8
1652,112.3
1653,136.3
1656,98.2
1659,103.1
1661,120.4
1662,154.0
1663,158.9
1665,142.7
1667,94.9
1668,87.9
1672,129.6
1674,140.5
1675,98.1
1677,142.0
1679,85.4
1680,101.8
1681,151.6
1683,134.6
1684,128.2
1688,138.2
1689,150.3
1690,75.1
1692,128.9
1695,151.0
1696,170.6
1697,161.0
1698,137.1
1701,90.5
1702,106.8
1703,104.6
1704,96.4
1706,130.7
1712,114.5
1713,75.1
1714,101.8
1715,113.7
1716,111.7
1717,163.0
1719,142.9
1722,107.5
1723,124.4
1724,98.8
1725,98.2
1726,157.9
1728,94.2
1730,105.8
1732,121.4
1735,125.4
1736,93.1
1737,146.4
1739,107.6
1741,128.9
1745,102.2
1747,82.8
1748,122.7
1752,146.9
1753,103.9
1754,166.6
1756,102.4
1758,92.9
1759,82.8
1766,138.8
1767,153.9
1770,80.2
1772,109.4
1777,163.2
1781,98.2
1784,124.0
1786,101.1
1787,136.8
1788,106.1
1790,168.6
1792,137.8
1793,90.8
1794,77.6
1795,128.1
1801,139.6
1802,92.5
1803,97.9
1804,110.0
1805,98.2
1807,117.4
1809,155.4
1810,169.2
1811,92.1
1813,127.8
1816,95.6
1821,140.5
1827,87.9
1829,97.3
1830,151.7
1831,92.8
1834,127.0
1835,103.1
1837,99.0
1838,134.3
1839,82.8
1840,121.2
1842,93.4
1844,131.8
1847,162.5
1850,77.6
1854,143.7
1855,130.6
1856,105.2
1857,92.0
1858,157.5
1861,115.9
1862,103.4
1865,165.6
1868,153.4
1869,151.0
1871,155.0
1874,93.1
1875,171.9
1877,99.1
1878,103.7
1879,156.2
1880,169.1
1884,128.9
1885,90.5
1886,90.5
1887,111.1
1891,110.1
1894,94.4
1896,170.2
1897,90.5
1899,157.7
1900,152.3
1901,114.0
1903,154.5
1905,164.0
1906,105.1
1907,101.8
1908,77.6
1911,143.1
1919,91.3
1920,82.8
1922,118.1
1927,107.6
1928,138.2
1931,151.9
1932,72.5
1935,101.6
1939,150.1
1940,166.8
1943,100.8
1945,149.9
1946,137.8
1950,115.0
1951,157.5
1955,93.1
1956,155.4
1960,128.9
1964,104.8
1967,82.8
1972,140.6
1973,107.1
1974,105.0
1975,142.6
1977,119.0
1978,82.8
1983,97.7
1984,165.7
1990,75.1
1992,128.6
1994,96.5
1995,128.2
1999,157.1
2000,149.1
2001,98.2
2003,92.0
2004,169.6
2006,101.0
2011,167.7
2013,77.6
2015,157.8
2016,119.4
2018,134.3
2019,99.2
2020,93.0
2021,98.7
2022,137.1
2024,93.1
2025,99.1
2026,168.3
2028,134.0
2030,165.6
2034,97.5
2035,90.5
2038,156.0
2039,134.3
2041,123.2
2042,152.1
2046,85.4
2048,113.4
2051,139.7
2056,133.9
2058,123.9
2059,82.8
2060,129.3
2061,125.1
2064,162.1
2065,170.4
2066,145.3
2070,72.5
2072,100.4
2074,128.0
2076,171.9
2078,164.4
2079,131.0
2081,100.8
2082,112.1
2083,127.4
2084,91.9
2086,151.4
2087,125.9
2088,143.9
2089,170.1
2092,170.1
2093,99.0
2094,90.5
2096,92.7
2098,113.9
2099,159.4
2100,100.7
2104,125.8
2105,87.9
2106,93.6
2107,123.1
2109,150.4
2110,152.7
2112,166.5
2113,153.0
2114,167.3
2115,106.5
2116,82.8
2117,139.9
2118,149.9
2121,100.5
2124,106.2
2128,75.1
2129,116.7
2130,108.9
2131,134.3
2132,131.8
2133,112.2
2135,167.5
2136,93.2
2137,102.9
2140,87.9
2141,108.4
2144,169.2
2145,123.6
2147,112.5
2150,105.4
2151,69.9
2153,148.6
2154,90.8
2155,95.4
2160,103.7
2162,98.2
2164,151.0
2165,130.3
2166,167.0
2169,102.2
2173,87.9
2174,91.2
2175,164.0
2181,90.1
2183,107.1
2185,82.8
2187,107.9
2188,95.0
2192,91.5
2194,132.6
2197,77.6
2199,110.4
2202,113.9
2205,148.6
2206,123.1
2207,109.6
2208,75.1
2211,99.1
2213,90.4
2215,132.3
2218,136.9
2220,87.9
2226,153.8
2229,171.9
2231,69.9
2232,99.9
2233,99.8
2236,155.5
2237,91.9
2239,168.3
2241,159.7
2242,95.6
2243,121.5
2245,151.7
2247,141.5
2249,157.3
2250,101.4
2251,130.5
2252,166.6
2253,87.9
2254,150.9
2256,137.7
2259,133.6
2261,153.4
2262,149.6
2266,82.8
2267,150.7
2269,140.7
2270,121.8
2271,134.4
2272,150.1
2274,114.6
2276,171.1
2277,75.1
2280,168.0
2281,167.3
2282,161.1
2283,134.9
2284,129.4
2286,111.2
2288,67.4
2289,110.1
2292,94.2
2293,165.6
2295,156.9
2296,169.7
2298,132.2
2299,87.9
2305,146.1
2307,110.4
2309,99.7
2310,97.9
2311,72.5
2314,158.5
2315,168.2
2316,96.8
2317,97.9
2318,162.4
2319,116.1
2321,144.3
2323,93.1
2326,135.5
2327,120.3
2328,111.2
2330,131.1
2331,152.3
2333,169.0
2334,93.1
2335,115.3
2338,169.8
2339,105.5
2342,111.3
2345,80.2
2346,159.5
2352,91.0
2354,119.8
2356,116.6
2357,72.5
2358,109.6
2360,123.9
2361,92.5
2362,116.4
2363,167.4
2368,67.4
2369,139.8
2371,110.5
2372,137.7
2373,147.7
2376,160.8
2379,98.2
2384,125.4
2388,102.2
2389,94.4
2390,94.8
2392,77.6
2397,101.3
2400,162.3
2401,149.1
2403,87.9
2407,156.4
2408,147.9
2409,134.2
2412,97.5
2414,82.8
2415,131.6
2416,165.5
2420,143.5
2421,132.1
2424,138.9
2425,69.9
2427,152.9
2428,169.4
2430,102.2
2437,67.4
2438,163.0
2439,101.5
2440,133.5
2442,131.1
2443,95.7
2444,111.5
2445,116.6
2446,101.1
2448,64.8
2449,108.6
2454,164.8
2456,142.2
2457,105.8
2458,115.5
2460,95.6
2461,168.0
2463,108.2
2470,171.7
2471,77.6
2479,91.4
2482,114.2
2483,82.8
2487,103.1
2491,97.8
2493,153.3
2494,77.6
2500,167.9
2501,135.2
2502,117.2
2504,135.0
2505,67.4
2507,146.3
2509,166.9
2512,141.5
2513,154.5
2514,169.9
2516,69.9
2517,118.4
2518,91.5
2526,144.6
2527,163.2
2529,62.2
2536,99.4
2537,92.6
2540,98.2
2541,128.1
2548,104.2
2549,94.5
2550,125.0
2551,82.8
2553,91.9
2557,97.0
2563,82.8
2564,136.0
2567,132.8
2570,127.6
2571,92.4
2572,149.3
2574,80.2
2575,151.1
2576,104.4
2577,170.7
2580,100.4
2581,150.3
2584,165.9
2585,75.1
2587,125.0
2589,118.8
2591,100.3
2597,85.4
2598,143.7
2599,111.7
2601,133.7
2603,120.7
2604,130.8
2609,69.9
2610,125.2
2615,151.6
2619,108.4
2620,100.8
2623,156.8
2624,163.1
2626,164.9
2628,151.8
2629,115.6
2632,87.9
2633,149.5
2634,169.6
2635,115.0
2638,104.6
2641,101.8
2642,126.1
2643,75.1
2645,171.0
2646,159.9
2648,114.6
2650,157.7
2651,92.1
2653,141.0
2655,117.3
2656,72.5
2661,90.6
2667,75.1
2668,130.9
2669,151.0
2671,141.3
2672,106.8
2673,150.0
2676,130.3
2677,102.2
2678,93.1
2682,109.3
2684,135.8
2685,124.6
2689,130.3
2690,72.5
2692,123.6
2695,103.9
2696,167.1
2697,152.1
2698,151.5
2699,100.3
2700,127.6
2701,90.5
2704,168.1
2708,122.3
2709,170.9
2712,90.5
2714,131.8
2715,159.5
2717,147.7
2720,121.8
2722,118.8
2723,147.3
2724,77.6
2725,122.8
2726,102.5
2727,100.7
2730,170.7
2732,168.4
2733,141.0
2734,126.2
2735,171.8
2736,77.6
2739,159.9
2742,126.2
2744,160.2
2747,72.5
2752,112.1
2753,141.1
2755,128.8
2756,158.0
2758,98.2
2761,144.3
2762,137.4
2763,142.4
2764,119.7
2765,93.0
2767,169.9
2768,98.9
2769,80.2
2773,131.8
2774,131.0
2778,129.6
2781,90.5
2786,114.7
2790,101.9
2792,109.3
2793,87.9
2794,160.9
2795,156.6
2796,115.2
2798,115.2
2800,124.4
2801,150.6
2804,77.6
2805,121.0
2808,102.5
2809,99.1
2810,97.1
2813,154.8
2816,77.6
2817,125.5
2818,110.7
2820,150.5
2822,119.2
2824,119.3
2826,137.1
2827,67.4
2828,104.1
2829,169.5
2832,144.1
2837,112.7
2838,98.2
2839,113.2
2841,157.1
2843,152.8
2844,98.3
2845,148.2
2846,130.4
2848,106.0
2849,87.9
2851,135.1
2853,133.6
2856,128.0
2857,90.2
2862,90.5
2864,144.8
2867,109.1
2868,108.5
2872,145.5
2873,90.5
2874,154.7
2875,131.0
2876,160.8
2877,156.1
2878,149.4
2879,133.3
2881,112.7
2882,155.7
2884,77.6
2887,134.0
2890,171.4
2891,123.2
2894,161.0
2895,77.6
2900,91.5
2902,159.4
2904,157.0
2905,171.4
2907,69.9
2910,104.9
2913,103.2
2915,162.0
2916,115.5
2917,143.8
2918,98.2
2919,112.9
2923,155.8
2925,105.3
2926,160.8
2927,99.7
2929,122.9
2930,93.1
2932,115.5
2933,151.0
2936,133.3
2938,90.3
2941,90.5
2942,167.6
2943,130.7
2948,98.2
2949,149.9
2953,85.4
2954,161.5
2956,121.6
2959,171.0
2960,106.6
2961,95.1
2962,147.3
2963,98.6
2964,72.5
2965,126.6
2967,157.9
2968,141.1
2970,164.8
2971,94.1
2975,80.2
2988,69.9
2999,100.8
3000,97.3
3001,112.6
3003,166.9
3004,107.2
3005,165.4
3008,128.9
3010,99.6
3011,90.5
3013,98.8
3014,146.6
3015,151.3
3017,138.4
3018,128.3
3019,143.5
3020,124.0
3021,154.0
3022,77.6
3023,98.6
3025,141.7
3026,121.8
3027,166.0
3028,152.4
3029,167.1
3031,146.1
3033,140.6
3034,67.4
3037,151.6
3040,94.2
3042,131.6
3043,98.1
3045,64.8
3046,143.1
3048,159.3
3049,142.2
3050,157.4
3051,116.9
3052,119.9
3054,90.8
3057,90.5
3058,99.9
3059,106.9
3062,125.9
3065,108.3
3066,133.5
3068,82.8
3069,147.9
3074,91.9
3077,165.7
3079,135.8
3080,95.6
3084,145.4
3087,158.6
3090,132.9
3091,95.6
3092,90.3
3095,101.3
3099,128.4
3101,152.4
3102,80.2
3107,148.6
3109,128.4
3110,167.5
3111,98.7
3113,72.5
3118,92.3
3121,146.6
3123,99.1
3125,140.5
3126,75.1
3127,170.0
3131,102.7
3132,163.3
3133,145.5
3134,162.1
3135,138.2
3137,103.4
3140,171.0
3141,110.6
3145,130.2
3147,99.9
3148,106.2
3149,95.6
3151,117.8
3153,108.6
3154,126.7
3155,124.4
3156,160.8
3157,163.8
3158,90.6
3159,155.5
3160,134.9
3161,87.9
3162,145.2
3163,148.7
3164,120.0
3166,118.9
3167,161.1
3168,131.0
3172,82.8
3174,91.2
3175,143.4
3176,144.9
3178,114.0
3179,155.5
3181,101.1
3183,72.5
3184,161.9
3185,169.0
3189,103.3
3190,157.6
3194,122.0
3195,82.8
3197,93.1
3200,171.5
3202,139.4
3206,152.6
3207,72.5
3208,135.2
3209,159.4
3210,111.3
3211,144.6
3216,91.6
3217,155.7
3218,98.2
3219,145.9
3222,119.2
3224,125.8
3225,146.6
3227,110.2
3228,159.7
3229,87.9
3232,165.0
3233,119.9
3235,151.4
3236,162.0
3237,101.6
3239,116.4
3240,75.1
3244,150.3
3246,158.8
3251,163.4
3252,75.1
3253,157.5
3257,121.8
3259,90.4
3261,166.1
3262,107.8
3263,119.8
3264,64.8
3266,170.3
3267,168.3
3269,143.2
3271,152.9
3273,163.2
3274,102.8
3275,82.8
3276,159.6
3277,147.6
3278,147.0
3279,140.8
3280,161.0
3281,137.4
3286,113.7
3287,67.4
3288,160.1
3289,131.3
3290,108.1
3292,90.8
3293,164.9
3295,150.6
3296,139.3
3297,156.4
3298,90.5
3299,156.8
3301,115.9
3302,108.7
3303,102.1
3304,120.2
3305,95.8
3308,129.1
3309,87.9
3311,119.9
3312,156.2
3314,135.1
3315,121.8
3316,113.8
3321,72.5
3322,148.5
3325,110.1
3326,144.8
3328,166.7
3330,160.7
3331,109.1
3333,69.9
3342,135.1
3344,69.9
3345,97.7
3348,116.7
3352,157.3
3355,90.5
3357,162.2
3364,112.6
3366,75.1
3372,130.9
3373,111.3
3375,171.5
3378,85.4
3380,130.2
3385,157.3
3386,138.0
3387,124.8
3390,80.2
3392,168.7
3393,116.2
3395,110.2
3396,117.6
3398,151.0
3401,69.9
3402,165.0
3403,99.1
3405,134.8
3409,96.3
3411,126.8
3412,69.9
3415,130.4
3419,156.2
3423,101.0
3424,67.4
3427,138.6
3428,152.7
3435,95.6
3438,130.8
3439,98.1
3440,119.7
3441,102.7
3442,160.0
3443,142.4
3444,152.5
3445,156.6
3446,77.6
3448,127.9
3454,108.6
3456,121.4
3457,102.6
3458,154.5
3459,85.4
3460,125.7
3461,150.5
3462,171.2
3463,153.3
3466,124.7
3470,82.8
3471,127.9
3473,101.6
3477,119.4
3479,126.2
3480,92.2
3481,80.2
3484,106.7
3485,157.8
3489,128.0
3490,119.7
3492,77.6
3497,156.1
3499,151.9
3501,129.4
3502,171.6
3504,69.9
3507,151.7
3508,129.5
3509,149.3
3511,107.8
3515,98.2
3520,129.9
3521,115.2
3525,108.7
3526,91.3
3527,80.2
3529,105.2
3532,126.3
3534,157.3
3535,158.9
3537,131.3
3538,82.8
3540,116.6
3542,127.6
3543,104.8
3545,94.1
3547,136.1
3550,82.8
3553,117.3
3554,153.2
3556,122.3
3558,133.3
3561,75.1
3567,170.5
3569,163.3
3572,77.6
3573,105.2
3574,132.3
3577,114.6
3578,93.7
3579,124.2
3584,62.2
3587,110.6
3588,90.8
3593,143.5
3594,120.9
3595,107.0
3596,95.6
3597,129.2
3601,95.5
3603,158.5
3605,106.9
3607,85.4
3609,117.7
3610,149.6
3612,169.3
3614,122.9
3618,85.4
3620,124.2
3624,101.3
3625,139.5
3628,107.9
3630,85.4
3634,133.4
3636,149.2
3640,158.5
3641,77.6
3643,139.8
3644,123.3
3645,145.1
3646,92.5
3647,111.6
3649,165.3
3653,80.2
3655,132.9
3656,122.3
3658,145.7
3659,104.5
3660,146.9
3661,154.0
3664,62.2
3665,153.7
3667,111.3
3669,118.4
3670,92.1
3672,133.0
3674,158.4
3676,93.1
3677,153.3
3681,128.9
3686,137.4
3687,82.8
3690,150.9
3696,168.5
3697,116.8
3698,82.8
3701,160.0
3703,125.2
3706,111.1
3707,90.7
3709,85.4
3710,105.7
3713,143.8
3714,116.4
3716,126.9
3717,150.4
3719,131.0
3722,72.5
3723,162.3
3729,131.0
3731,117.8
3733,80.2
3734,110.9
3737,125.8
3738,96.3
3744,62.2
3747,147.8
3748,92.3
3750,158.2
3751,133.2
3753,102.1
3754,104.8
3755,107.2
3756,90.5
3757,123.0
3758,158.7
3760,127.3
3761,106.9
3762,94.9
3765,104.4
3766,167.4
3767,90.5
3773,102.1
3774,98.5
3776,152.4
3777,158.5
3778,82.8
3779,158.1
3780,143.4
3781,130.2
3782,139.8
3783,169.4
3785,98.7
3787,103.5
3790,77.6
3791,153.9
3795,102.9
3801,162.4
3802,64.8
3803,120.5
3807,113.7
3808,158.6
3809,123.1
3810,135.4
3811,92.7
3813,80.2
3815,104.4
3817,98.5
3820,124.8
3821,137.4
3823,107.0
3824,67.4
3825,160.2
3826,104.7
3828,92.4
3829,104.8
3830,123.9
3833,168.8
3834,136.6
3835,90.5
3837,135.1
3838,97.8
3842,170.3
3843,111.8
3847,93.1
3848,145.6
3853,112.0
3854,158.0
3855,95.0
3857,134.8
3858,161.2
3859,82.8
3863,126.9
3867,162.5
3869,152.3
3870,75.1
3873,165.6
3876,156.1
3877,96.6
3878,165.8
3881,64.8
3883,126.5
3884,153.8
3889,162.8
3890,146.2
3892,167.2
3893,85.4
3896,113.9
3897,106.3
3900,105.1
3901,158.5
3903,105.1
3904,69.9
3905,165.2
3906,120.9
3910,108.4
3911,99.3
3914,156.3
3915,90.5
3916,103.1
3918,112.8
3919,126.4
3922,170.3
3924,165.1
3926,90.4
3927,108.2
3928,98.2
3929,136.2
3930,150.8
3932,152.0
3934,116.7
3936,95.0
3938,162.2
3939,80.2
3940,140.5
3941,140.2
3946,170.9
3947,116.7
3949,147.3
3950,75.1
3952,108.0
3953,139.6
3956,100.4
3957,147.5
3959,171.3
3961,69.9
3965,130.4
3967,134.4
3971,97.1
3973,95.6
3974,163.4
3977,99.7
3984,85.4
3985,121.8
3986,118.5
3987,93.9
3988,169.9
3990,136.2
3992,125.2
3994,100.3
3996,93.1
4001,125.3
4007,90.5
4009,124.4
4010,122.4
4015,117.2
4019,75.1
4020,104.1
4021,160.8
4024,135.3
4025,114.9
4027,170.1
4028,138.2
4029,111.7
4030,75.1
4032,151.4
4033,138.1
4034,91.9
4036,149.3
4037,131.5
4038,134.8
4041,67.4
4043,114.7
4046,90.2
4047,151.4
4049,171.5
4050,151.8
4054,95.6
4058,159.4
4062,91.8
4064,93.7
4065,85.4
4066,90.8
4067,148.6
4070,98.5
4071,168.7
4076,90.5
4078,159.2
4081,138.8
4084,103.6
4085,153.3
4087,85.4
4090,164.1
4095,153.7
4097,167.4
4098,162.3
4099,69.9
4100,109.5
4108,92.7
4110,69.9
4111,111.2
4115,136.9
4118,92.8
4122,64.8
4123,108.5
4124,163.7
4125,118.6
4126,105.8
4129,106.9
4132,90.5
4133,98.2
4135,103.8
4136,119.3
4139,93.3
4142,156.4
4143,164.3
4145,95.6
4146,156.0
4148,118.2
4151,169.8
4152,99.3
4156,90.5
4157,162.5
4159,108.6
4164,117.7
4167,85.4
4171,116.9
4173,148.9
4174,163.6
4178,75.1
4179,108.5
4190,123.2
4191,80.2
4192,131.4
4199,135.5
4202,72.5
4205,135.9
4206,147.0
4208,107.1
4212,105.9
4213,98.2
4214,153.6
4215,105.8
4220,103.3
4222,159.7
4223,122.3
4224,103.4
4225,85.4
4231,125.0
4232,90.6
4234,134.1
4236,77.6
4237,118.4
4241,151.2
4243,134.1
4244,142.9
4245,100.0
4247,77.6
4249,158.2
4250,154.7
4252,151.7
4259,72.5
4261,97.4
4262,162.1
4266,94.7
4268,154.0
4269,151.6
4270,122.2
4271,82.8
4273,164.4
4274,140.2
4276,140.4
4277,168.0
4278,99.7
4282,69.9
4287,109.9
4290,130.7
4291,106.2
4292,129.5
4293,98.2
4294,115.3
4296,120.5
4297,103.1
4298,164.3
4301,121.5
4304,85.4
4305,138.8
4306,161.1
4307,142.6
4313,136.4
4314,163.9
4315,118.0
4316,77.6
4317,170.9
4318,98.0
4319,100.9
4320,122.4
4321,96.2
4322,108.8
4324,129.5
4325,109.0
4326,122.9
4328,72.5
4330,167.4
4331,160.1
4332,112.5
4334,116.1
4338,144.8
4339,67.4
4340,131.7
4341,165.3
4342,110.7
4344,98.4
4350,82.8
4351,164.3
4354,147.5
4355,163.0
4356,124.9
4357,126.8
4359,152.8
4361,92.2
4362,80.2
4363,136.8
4366,103.0
4367,150.8
4369,133.7
4371,112.0
4372,161.7
4373,100.8
4378,112.2
4379,105.7
4380,147.8
4381,95.1
4383,146.7
4384,160.5
4386,87.9
4387,119.1
4388,116.1
4390,112.2
4392,149.0
4393,101.4
4394,137.7
4397,98.6
4398,77.6
4400,109.5
4401,159.0
4404,132.4
4406,126.2
4409,75.1
4413,165.2
4418,127.8
4420,69.9
4423,101.5
4424,128.2
4427,169.9
4428,120.7
4430,150.8
4431,98.2
4432,160.5
4438,102.6
4439,97.7
4441,134.7
4443,82.8
4445,148.1
4448,110.9
4455,82.8
4456,155.4
4457,116.3
4460,166.4
4465,154.9
4466,90.5
4468,138.4
4474,150.3
4476,169.5
4477,80.2
4479,114.8
4483,134.5
4484,130.4
4485,125.4
4488,142.0
4489,82.8
4490,158.0
4493,106.3
4494,107.1
4495,109.2
4500,72.5
4506,104.0
4508,138.3
4511,100.8
4520,135.8
4521,119.1
4522,119.4
4523,140.6
4524,94.7
4525,87.9
4526,117.9
4527,148.7
4531,144.6
4532,168.7
4533,112.5
4534,162.4
4536,77.6
4537,117.4
4538,131.3
4539,154.3
4540,150.3
4544,133.5
4545,158.0
4547,75.1
4550,134.4
4552,169.8
4553,116.3
4554,125.9
4556,155.1
4557,101.1
4558,67.4
4560,154.7
4561,91.5
4562,131.6
4563,122.6
4566,100.3
4568,137.9
4570,85.4
4571,103.8
4572,115.0
4573,107.8
4574,154.0
4575,161.7
4577,150.4
4578,96.6
4579,138.0
4581,77.6
4582,103.8
4584,103.0
4585,105.1
4588,118.7
4589,151.9
4591,133.7
4592,118.9
4593,95.6
4594,155.3
4597,166.6
4599,123.3
4600,152.1
4602,171.1
4603,126.7
4604,90.5
4606,135.3
4607,105.5
4610,152.4
4611,162.2
4612,143.0
4614,97.4
4616,77.6
4620,167.6
4621,155.0
4625,110.1
4627,72.5
4628,112.4
4635,113.6
4638,69.9
4639,137.0
4640,138.7
4643,154.6
4646,139.6
4647,143.7
4649,90.5
4652,122.3
4653,158.2
4655,126.4
4656,101.0
4657,122.7
4658,111.5
4659,158.1
4661,118.1
4662,75.1
4663,158.8
4664,169.0
4667,119.6
4669,105.9
4671,95.5
4672,158.5
4673,87.9
4675,143.1
4676,91.5
4677,109.0
4678,96.1
4680,150.5
4682,96.9
4684,90.5
4685,108.0
4689,120.4
4690,106.5
4692,140.8
4693,101.0
4696,80.2
4701,114.4
4702,128.0
4703,97.1
4704,138.5
4705,121.4
4706,90.5
4707,75.1
4708,93.8
4710,169.1
4713,166.4
4714,101.8
4716,129.8
4717,93.1
4718,122.8
4719,69.9
4721,122.8
4724,165.7
4725,151.4
4729,158.1
4730,95.6
4734,94.5
4735,170.0
4736,161.4
4737,122.1
4740,107.9
4741,133.1
4742,80.2
4744,167.0
4746,90.8
4747,136.9
4749,108.7
4751,104.2
4753,85.4
4754,112.3
4755,97.4
4757,157.7
4759,144.0
4760,160.3
4762,145.2
4764,85.4
4766,106.9
4767,161.1
4768,106.3
4769,123.7
4770,91.0
4775,72.5
4776,166.8
4777,140.6
4779,113.2
4782,97.6
4788,69.9
4789,125.7
4792,101.3
4795,106.4
4799,57.1
4801,98.1
4804,118.6
4805,163.8
4806,113.6
4807,165.1
4808,106.1
4809,104.7
4810,85.4
4811,128.5
4812,163.4
4817,132.9
4818,129.1
4819,124.5
4821,165.3
4822,77.6
4824,92.6
4825,160.4
4826,107.1
4828,110.6
4829,114.0
4832,141.1
4833,80.2
4834,93.7
4835,112.8
4836,125.1
4837,95.7
4838,116.9
4840,117.9
4841,132.0
4843,126.2
4844,77.6
4845,171.8
4847,158.5
4848,130.5
4849,140.5
4850,105.5
4851,114.6
4853,105.0
4856,64.8
4861,162.3
4862,113.5
4863,108.0
4864,115.2
4865,153.3
4868,69.9
4870,96.4
4872,130.7
4873,108.0
4875,118.3
4878,154.0
4879,57.1
4881,155.3
4883,131.1
4884,121.9
4886,111.0
4888,136.8
4890,90.5
4892,171.8
4893,103.6
4894,161.7
4896,153.4
4899,120.3
4901,87.9
4907,108.5
4908,159.0
4909,101.2
4911,135.9
4912,93.4
4913,85.4
4917,146.4
4920,104.2
4921,132.3
4924,150.2
4925,77.6
4926,111.8
4927,143.5
4929,170.3
4933,90.3
4935,117.8
4936,69.9
4939,131.1
4940,117.7
4942,162.6
4944,129.5
4947,77.6
4948,167.4
4950,104.3
4951,122.0
4953,112.8
4956,116.3
4958,138.4
4959,64.8
4960,91.3
4963,155.4
4965,137.7
4969,108.1
4970,90.5
4972,133.8
4975,111.5
4977,125.0
4979,115.0
4981,87.9
4983,159.4
4985,142.1
4986,150.4
4987,114.1
4994,75.1
4996,127.4
4997,168.4
4998,132.8
5000,112.6
5003,127.5
5005,69.9
5008,122.5
5009,120.8
5010,134.5
5011,127.0
5016,64.8
5021,143.4
5025,160.2
5026,162.0
5027,75.1
5029,111.0
5031,124.0
5035,128.3
5037,145.7
5038,121.8
5039,64.8
5047,109.2
5049,135.4
5051,90.5
5059,156.3
5062,85.4
5066,169.1
5067,95.5
5068,144.0
5069,162.3
5070,97.1
5071,120.6
5072,132.4
5073,75.1
5077,139.9
5078,92.8
5080,94.9
5083,127.1
5085,67.4
5087,165.8
5090,103.7
5091,159.1
5092,90.9
5094,132.4
5096,57.1
5099,117.4
5101,147.2
5102,143.3
5103,158.7
5105,121.6
5106,113.8
5107,77.6
5111,109.4
5112,123.8
5114,162.3
5115,92.7
5120,72.5
5121,163.8
5124,108.7
5127,110.3
5128,111.9
5131,93.1
5133,124.8
5136,131.8
5139,107.3
5140,122.5
5142,82.8
5143,142.9
5153,69.9
5158,144.6
5159,91.8
5160,123.2
5164,147.5
5165,62.2
5171,162.8
5176,59.6
5179,99.9
5181,166.5
5184,105.0
5185,105.0
5186,123.6
5188,85.4
5189,160.3
5192,164.7
5195,142.7
5197,153.6
5198,140.4
5199,72.5
5209,153.2
5210,127.1
5211,82.8
5213,143.1
5218,125.3
5221,107.9
5222,80.2
5223,152.3
5225,145.5
5226,156.3
5227,93.8
5229,128.6
5230,106.8
5232,124.0
5233,67.4
5237,115.0
5239,156.7
5241,147.1
5242,146.9
5243,161.2
5244,64.8
5246,131.3
5247,129.5
5249,122.8
5252,150.8
5253,115.8
5254,171.5
5256,116.5
5257,62.2
5258,91.8
5259,145.0
5261,114.8
5265,101.3
5266,157.9
5268,93.1
5269,146.9
5271,94.8
5273,143.1
5274,136.0
5279,77.6
5285,152.7
5286,152.7
5287,134.7
5290,122.9
5291,77.6
5292,149.3
5293,92.4
5296,122.0
5302,77.6
5305,105.3
5306,95.0
5307,95.7
5308,152.6
5309,137.4
5310,168.9
5312,163.5
5313,62.2
5315,91.2
5317,105.7
5319,156.4
5321,137.7
5324,152.9
5325,59.6
5326,131.7
5327,140.5
5331,145.2
5332,136.5
5333,134.0
5337,62.2
5339,103.1
5340,99.8
5341,102.6
5344,147.6
5348,93.1
5351,169.2
5352,153.1
5353,153.4
5355,109.1
5356,97.4
5357,150.5
5358,165.6
5359,75.1
5360,133.8
5361,157.4
5364,115.3
5365,111.5
5370,72.5
5372,123.2
5373,113.9
5376,92.5
5382,69.9
5383,148.9
5386,138.5
5387,146.3
5389,144.5
5390,169.7
5394,64.8
5395,97.1
5398,153.2
5399,168.5
5401,114.8
5402,171.1
5403,139.3
5405,67.4
5407,91.6
5408,113.1
5409,153.6
5411,140.1
5416,57.1
5417,124.3
5420,92.2
5422,121.2
5423,104.7
5424,140.6
5426,157.2
5427,126.0
5428,82.8
5429,90.2
5431,111.2
5436,139.8
5438,103.3
5439,77.6
5445,171.9
5450,109.0
5451,75.1
5455,164.8
5457,150.9
5462,112.8
5463,72.5
5465,154.5
5466,156.6
5470,147.2
5471,154.2
5472,146.9
5474,67.4
5478,157.4
5480,96.2
5483,149.4
5485,72.5
5487,99.2
5489,128.7
5490,160.5
5491,90.5
5493,142.0
5496,57.1
5497,168.2
5498,112.2
5499,108.2
5502,99.3
5504,162.4
5505,133.3
5506,160.8
5507,152.2
5508,85.4
5509,165.5
5514,98.4
5517,143.3
5518,110.7
5520,77.6
5521,153.3
5522,165.5
5523,144.0
5524,163.9
5528,143.6
5529,97.6
5530,90.1
5531,69.9
5533,167.0
5534,153.5
5537,99.4
5538,94.5
5540,139.1
5541,102.8
5542,64.8
5545,141.7
5546,93.5
5547,162.1
5548,106.7
5549,132.1
5552,134.2
5554,57.1
5555,132.4
5557,163.7
5561,168.8
5563,95.4
5564,103.1
5565,64.8
5568,102.3
5570,103.6
5574,167.6
5576,51.9
5577,135.1
5579,143.4
5580,153.2
5581,158.3
5584,159.1
5588,75.1
5591,116.8
5595,167.6
5596,144.2
5598,91.6
5600,72.5
5601,102.1
5603,131.6
5604,137.5
5606,117.8
5609,136.3
5611,64.8
5613,142.6
5614,128.3
5615,112.6
5619,96.2
5620,134.3
5621,124.7
5622,62.2
5623,138.6
5625,99.2
5626,139.2
5628,163.3
5629,160.4
5630,104.1
5631,128.7
5634,54.5
5640,122.1
5643,91.3
5644,92.7
5645,69.9
5646,100.9
5647,91.4
5649,141.2
5651,127.4
5653,142.1
5656,156.0
5657,59.6
5658,171.5
5661,124.5
5662,145.1
5665,162.4
5668,85.4
5669,113.0
5670,107.9
5671,155.9
5672,121.3
5674,143.4
5675,142.6
5676,117.4
5680,80.2
5681,132.8
5682,157.3
5683,129.7
5684,90.5
5685,104.6
5687,150.3
5688,114.2
5690,144.3
5691,69.9
5694,143.9
5696,114.5
5697,143.9
5699,120.7
5700,123.4
5701,91.5
5702,64.8
5703,97.4
5705,165.9
5706,168.5
5713,57.1
5714,127.6
5715,110.4
5716,105.0
5718,164.6
5719,136.7
5720,123.2
5725,156.9
5726,77.6
5727,147.7
5730,110.5
5733,120.9
5734,152.4
5735,90.1
5736,165.3
5737,64.8
5739,114.1
5741,120.8
5743,100.9
5744,152.7
5748,77.6
5754,146.6
5755,93.4
5756,119.1
5758,147.3
5760,69.9
5761,124.8
5762,131.1
5763,96.5
5765,133.7
5766,126.0
5769,120.1
5770,167.2
5771,57.1
5774,145.7
5775,169.6
5776,161.6
5780,157.8
5782,112.3
5783,49.3
5785,161.9
5789,131.8
5790,102.0
5794,46.8
5795,118.9
5797,148.8
5799,127.0
5800,130.9
5802,132.5
5804,112.7
5806,72.5
5808,148.4
5809,123.7
5810,171.9
5812,168.8
5814,108.9
5816,93.2
5817,64.8
5820,123.1
5824,128.0
5826,153.6
5828,72.5
5829,169.6
5833,123.4
5834,138.0
5837,100.6
5838,137.7
5839,67.4
5841,136.5
5843,129.7
5845,164.7
5846,162.8
5848,164.2
5849,101.1
5851,94.1
5852,57.1
5856,111.0
5859,139.6
5860,121.7
5863,54.5
5866,103.6
5867,123.7
5869,140.8
5870,90.9
5871,124.2
5873,96.0
5874,54.5
5879,127.2
5880,166.4
5883,137.8
5884,104.5
5885,85.4
5886,163.2
5887,120.9
5888,170.8
5892,164.5
5894,167.7
5896,143.9
5897,69.9
5898,102.7
5900,165.0
5901,139.5
5902,168.0
5904,134.9
5908,69.9
5909,107.7
5913,151.6
5915,150.3
5916,160.9
5918,122.8
5919,132.2
5920,64.8
5924,148.2
5926,127.0
5929,105.4
5931,165.1
5932,54.5
5936,125.6
5938,114.7
5940,110.3
5943,54.5
5946,133.1
5947,94.0
5948,167.7
5949,156.2
5950,163.4
5951,156.7
5954,54.5
5959,97.8
5960,106.4
5964,133.3
5965,82.8
5971,105.5
5972,152.7
5977,72.5
5979,96.9
5980,171.3
5981,123.0
5984,92.4
5989,64.8
5990,163.5
5991,113.7
5992,94.1
5993,170.3
5994,147.3
5995,166.3
5997,102.0
6000,62.2
6001,140.6
6005,151.3
6008,95.5
6009,155.0
6010,150.8
6011,54.5
6014,144.2
6016,159.9
6017,161.4
6019,149.9
6022,136.2
6023,59.6
6026,107.9
6027,99.7
6030,106.7
6032,156.5
6034,57.1
6036,130.6
6037,102.5
6039,142.1
6040,134.6
6041,100.9
6042,138.5
6043,134.3
6045,82.8
6046,142.8
6047,158.3
6048,121.5
6049,103.1
6050,154.4
6054,167.1
6057,69.9
6063,101.1
6065,164.5
6067,117.0
6068,169.5
6069,59.6
6071,143.2
6074,94.6
6076,105.0
6077,117.6
6078,109.0
6080,57.1
6081,136.8
6087,129.7
6088,125.0
6089,139.9
6091,54.5
6092,155.6
6093,141.0
6095,111.4
6097,164.3
6098,122.9
6099,165.1
6101,136.6
6102,170.1
6103,67.4
6105,153.7
6106,165.5
6107,170.3
6110,92.8
6111,171.0
6112,120.3
6113,133.8
6114,57.1
6115,162.1
6116,97.0
6117,144.0
6118,110.2
6120,166.7
6122,126.8
6125,123.5
6126,80.2
6128,98.2
6130,133.1
6133,136.9
6134,170.2
6137,72.5
6139,102.5
6140,152.7
6143,165.1
6144,142.6
6149,59.6
6150,153.2
6153,159.7
6155,90.6
6159,110.3
6160,57.1
6161,167.0
6164,130.2
6165,99.9
6167,103.4
6169,108.5
6170,95.9
6171,57.1
6175,105.9
6176,144.2
6178,115.9
6179,123.2
6183,69.9
6189,91.0
6190,130.7
6194,130.7
6195,54.5
6196,142.7
6197,96.0
6201,171.2
6202,118.7
6204,108.5
6206,72.5
6212,97.1
6215,137.2
6216,144.4
6217,75.1
6219,169.2
6221,102.0
6223,117.3
6225,141.0
6226,158.5
6227,139.0
6228,67.4
6233,95.8
6236,106.3
6238,129.7
6240,59.6
6242,107.2
6245,93.3
6246,114.5
6248,105.1
6249,114.1
6250,171.7
6252,59.6
6256,112.6
6259,126.8
6262,135.1
6263,77.6
6266,90.0
6267,112.2
6270,125.4
6271,126.4
6272,168.6
6275,59.6
6277,124.1
6278,100.6
6279,108.5
6282,170.9
6286,72.5
6288,165.7
6297,69.9
6298,162.6
6303,146.7
6305,128.6
6306,116.4
6308,57.1
6309,153.7
6310,139.9
6311,154.5
6312,141.6
6313,170.2
6314,146.4
6317,160.0
6319,169.9
6321,51.9
6332,57.1
6333,97.4
6334,147.0
6335,168.8
6337,103.6
6338,134.1
6339,118.5
6340,112.0
6341,121.4
6342,169.7
6343,77.6
6344,93.0
6347,156.7
6349,135.8
6354,64.8
6360,119.0
6362,90.1
6363,118.4
6364,150.8
6366,72.5
6370,149.8
6371,156.2
6373,116.3
6377,72.5
6380,158.5
6382,111.4
6383,148.9
6384,140.8
6389,62.2
6391,144.9
6392,110.4
6395,144.6
6401,57.1
6402,165.6
6403,93.8
6404,130.3
6406,128.8
6408,94.1
6410,90.9
6411,110.2
6412,46.8
6414,158.0
6417,91.0
6418,115.5
6420,163.2
6421,99.6
6423,75.1
6424,112.7
6425,91.5
6426,152.4
6427,139.5
6428,154.7
6431,134.8
6434,75.1
6436,104.6
6437,156.0
6438,92.0
6439,107.1
6441,121.4
6443,153.1
6444,152.9
6446,77.6
6447,150.6
6448,93.3
6449,132.1
6450,165.1
6451,134.6
6455,122.7
6456,167.8
6458,72.5
6465,141.5
6469,62.2
6472,146.9
6474,91.7
6479,126.5
6480,59.6
6481,134.3
6482,102.4
6483,116.4
6485,139.9
6486,117.7
6488,169.6
6489,121.3
6490,146.7
6491,148.2
6492,49.3
6493,106.9
6494,106.7
6495,109.4
6497,149.1
6498,100.8
6503,77.6
6504,94.6
6505,105.6
6506,170.8
6507,114.6
6508,159.7
6509,131.3
6514,131.6
6515,72.5
6516,94.4
6517,153.0
6518,125.4
6523,93.5
6526,67.4
6529,149.0
6530,139.6
6532,129.6
6533,169.4
6535,138.9
6536,93.4
6537,145.7
6538,59.6
6540,99.6
6541,147.3
6543,97.6
6544,158.8
6545,157.4
6546,141.6
6549,51.9
6550,170.3
6554,161.0
6555,96.5
6557,106.4
6560,59.6
6561,160.2
6562,101.9
6563,122.0
6564,98.2
6565,117.5
6571,112.6
6572,51.9
6574,117.8
6576,93.9
6577,103.4
6578,122.7
6579,105.3
6581,99.8
6583,138.7
6584,80.2
6585,123.1
6588,114.2
6590,127.3
6595,75.1
6596,146.1
6598,171.0
6599,102.0
6602,115.7
6604,139.3
6605,128.6
6606,67.4
6610,90.6
6612,129.1
6613,112.4
6615,148.3
6616,114.3
6617,149.6
6618,59.6
6619,168.6
6622,94.6
6623,133.6
6624,163.1
6628,153.4
6629,49.3
6630,165.3
6636,163.4
6637,96.6
6638,151.6
6639,113.7
6640,59.6
6641,151.2
6642,157.5
6647,136.9
6649,149.8
6650,137.3
6651,124.5
6652,59.6
6653,155.0
6654,155.9
6655,171.8
6659,100.8
6662,123.4
6664,87.9
6669,110.4
6673,147.7
6675,75.1
6676,137.2
6679,165.7
6681,119.8
6685,170.1
6686,67.4
6687,101.3
6688,121.5
6689,150.7
6692,114.7
6693,100.6
6694,129.9
6695,135.6
6696,126.8
6697,62.2
6699,107.7
6701,121.8
6702,122.9
6705,117.1
6706,156.6
6707,122.3
6708,93.4
6709,51.9
6710,122.5
6711,125.6
6712,90.7
6715,93.6
6716,149.9
6717,162.7
6719,97.2
6721,67.4
6722,141.9
6724,111.8
6726,90.7
6727,134.7
6728,99.9
6730,160.5
6732,59.6
6733,138.1
6737,138.6
6741,171.1
6742,94.8
6744,77.6
6748,150.7
6750,142.4
6752,101.7
6755,69.9
6757,101.1
6760,139.9
6763,117.8
6765,146.5
6766,62.2
6771,152.9
6774,127.7
6776,120.4
6777,59.6
6781,128.3
6783,139.0
6784,109.0
6785,99.2
6786,143.2
6790,57.1
6792,105.3
6798,122.2
6799,94.1
6800,148.8
6801,77.6
6803,125.3
6804,100.9
6805,169.3
6812,64.8
6815,118.6
6816,156.8
6817,130.4
6820,114.2
6823,77.6
6824,116.4
6827,156.5
6829,170.5
6830,138.4
6831,101.2
6834,116.2
6835,67.4
6839,151.3
6841,168.9
6843,113.1
6846,54.5
6847,113.4
6848,117.0
6851,132.1
6852,100.2
6853,91.3
6855,136.0
6857,148.9
6858,51.9
6861,138.8
6863,118.5
6870,59.6
6871,118.7
6873,107.3
6874,162.7
6875,159.3
6876,152.5
6877,122.6
6881,80.2
6883,123.3
6884,161.1
6892,64.8
6894,139.0
6895,146.2
6897,102.3
6899,130.5
6900,130.6
6903,72.5
6904,115.8
6905,123.4
6906,91.0
6910,169.5
6913,123.5
6914,156.5
6915,158.9
6916,67.4
6920,115.4
6921,124.7
6925,126.7
6927,51.9
6929,114.3
6930,160.8
6931,102.6
6932,124.6
6935,165.6
6938,54.5
6943,91.3
6945,106.1
6947,155.6
6948,95.2
6949,54.5
6950,131.3
6952,92.2
6954,120.7
6956,106.3
6957,90.4
6958,126.2
6959,145.7
6961,77.6
6965,142.1
6967,97.4
6968,130.8
6969,97.7
6970,124.7
6971,118.4
6972,62.2
6974,126.1
6976,95.1
6977,100.6
6978,111.0
6983,96.2
6984,67.4
6987,110.1
6988,116.8
6989,126.3
6990,111.8
6991,148.2
6992,169.4
6995,72.5
6996,150.0
6998,120.0
7000,98.0
7001,156.6
7003,146.9
7004,171.0
7005,128.3
7007,59.6
7008,94.5
7010,149.3
7011,100.1
7013,166.6
7014,96.6
7015,142.7
7018,62.2
7022,133.0
7023,137.2
7025,122.6
7026,169.1
7027,166.8
7028,159.5
7029,57.1
7030,123.2
7031,107.6
7033,117.1
7037,162.6
7041,82.8
7044,135.4
7047,106.0
7049,116.4
7050,139.8
7053,69.9
7055,111.6
7060,145.0
7062,127.7
7064,64.8
7065,134.8
7066,90.6
7069,146.3
7070,94.0
7073,105.2
7075,62.2
7076,109.9
7080,151.2
7082,129.2
7087,62.2
7088,128.9
7090,149.9
7092,134.4
7093,110.0
7094,90.5
7096,142.7
7097,136.2
7098,64.8
7100,103.4
7104,139.5
7106,125.5
7108,109.8
7109,51.9
7111,105.6
7120,157.0
7121,80.2
7123,146.6
7124,139.5
7126,129.3
7127,154.5
7128,100.9
7129,136.4
7133,72.5
7135,160.6
7138,113.7
7139,93.3
7143,161.2
7144,64.8
7146,165.6
7148,116.4
7153,152.6
7155,62.2
7156,156.9
7157,166.7
7163,163.5
7164,127.7
7165,140.6
7166,57.1
7171,138.7
7173,105.3
7174,103.6
7178,69.9
7181,128.8
7185,109.4
7186,166.5
7187,103.1
7188,149.1
7190,49.3
7191,161.1
7192,143.4
7193,93.8
7194,109.5
7195,105.0
7197,137.2
7198,110.6
7200,171.3
7201,75.1
7203,95.4
7204,140.6
7205,108.7
7206,155.5
7207,132.3
7208,114.1
7209,107.4
7210,114.3
7213,69.9
7214,144.1
7220,139.6
7221,133.1
7222,162.9
7224,64.8
7226,90.7
7227,145.2
7228,117.2
7230,116.3
7231,96.9
7232,159.1
7233,146.6
7234,100.4
7235,64.8
7236,121.9
7241,165.0
7242,126.3
7247,59.6
7248,125.8
7249,146.6
7252,141.0
7258,106.5
7259,75.1
7260,168.7
7264,100.2
7265,90.3
7266,158.3
7268,154.7
7270,54.5
7275,170.7
7276,107.5
7277,102.7
7278,153.4
7279,125.5
7281,77.6
7282,141.3
7285,153.9
7286,164.9
7287,130.4
7288,128.3
7290,107.9
7292,72.5
7295,167.0
7297,124.0
7301,149.5
7302,147.4
7304,64.8
7305,92.8
7310,122.7
7313,166.1
7316,62.2
7318,149.9
7319,92.3
7320,155.8
7324,90.3
7325,135.8
7327,57.1
7329,94.3
7331,121.0
7332,92.8
7334,140.4
7338,103.9
7339,75.1
7342,131.3
7350,57.1
7351,114.9
7353,141.7
7354,97.0
7356,157.6
7357,142.5
7360,154.9
7361,75.1
7362,114.4
7363,94.4
7365,163.6
7367,112.2
7368,145.4
7371,161.2
7372,75.1
7373,128.8
7374,152.2
7375,131.5
7378,125.1
7380,124.5
7381,120.4
7383,165.9
7385,67.4
7386,159.0
7387,125.2
7389,103.1
7391,159.1
7394,110.1
7395,123.2
7396,57.1
7397,156.0
7402,144.3
7403,119.3
7404,159.4
7405,156.4
7407,51.9
7408,123.1
7410,168.3
7413,111.5
7414,123.8
7416,95.8
7418,75.1
7423,137.0
7424,111.9
7425,138.8
7430,64.8
7431,142.9
7438,107.1
7439,132.9
7441,75.1
7446,107.8
7449,138.1
7450,153.1
7451,145.7
7452,151.4
7453,75.1
7455,158.8
7457,148.1
7458,159.1
7460,139.0
7464,64.8
7467,96.3
7468,139.1
7470,147.9
7472,125.0
7473,138.3
7474,140.9
7475,115.8
7476,59.6
7477,115.7
7478,161.1
7479,139.0
7481,155.6
7485,107.0
7487,51.9
7488,157.5
7489,153.6
7492,125.8
7498,77.6
7504,107.8
7508,100.8
7509,108.2
7510,67.4
7512,138.4
7517,163.2
7519,98.3
7520,98.3
7521,148.9
7522,75.1
7524,138.0
7525,166.6
7528,133.8
7533,69.9
7534,143.4
7539,144.2
7542,164.6
7544,59.6
7546,117.0
7547,113.6
7553,166.5
7556,57.1
7557,108.7
7563,91.3
7565,147.4
7566,105.0
7567,49.3
7569,126.9
7570,150.8
7574,171.0
7575,161.8
7578,77.6
7583,101.3
7584,105.8
7587,138.5
7589,133.5
7590,75.1
7592,165.1
7598,167.0
7599,114.6
7600,157.8
7602,72.5
7603,166.2
7604,103.3
7605,122.6
7608,127.8
7612,131.3
7613,69.9
7615,130.3
7617,159.5
7620,153.5
7621,133.2
7624,59.6
7626,164.5
7630,100.6
7633,126.9
7634,142.7
7635,64.8
7638,143.2
7640,94.7
7641,143.9
7642,169.7
7643,113.8
7644,121.8
7647,94.1
7648,57.1
7649,147.2
7650,171.0
7651,106.4
7654,149.3
7655,137.2
7656,120.3
7658,115.1
7659,85.4
7661,151.3
7664,137.1
7666,134.0
7667,161.3
7668,112.2
7670,82.8
7672,92.0
7674,145.7
7677,132.3
7678,146.3
7680,141.1
7682,75.1
7684,136.5
7685,155.3
7688,105.8
7689,145.6
7693,67.4
7694,109.8
7695,90.3
7696,140.9
7697,165.3
7698,102.6
7699,122.4
7700,99.8
7702,158.8
7704,59.6
7706,94.9
7707,162.2
7708,124.2
7709,121.5
7712,100.9
7714,98.1
7715,116.5
7716,67.4
7719,163.9
7720,150.1
7721,146.1
7724,123.3
7725,112.8
7728,57.1
7730,130.9
7732,166.0
7734,167.7
7735,116.4
7736,151.6
7739,85.4
7742,119.4
7744,130.5
7745,98.2
7746,169.2
7750,80.2
7751,110.9
7752,125.3
7753,90.5
7754,94.3
7755,132.9
7757,117.7
7758,154.5
7759,124.0
7760,133.5
7761,69.9
7764,100.9
7766,146.0
7767,119.3
7769,124.0
7771,118.9
7773,64.8
7775,116.7
7776,102.6
7777,163.1
7781,160.6
7784,111.3
7785,62.2
7789,153.1
7790,138.3
7793,128.7
7794,114.3
7796,75.1
7797,101.8
7798,159.5
7800,106.5
7802,133.4
7803,164.8
7804,171.8
7806,91.4
7808,62.2
7810,153.6
7814,158.6
7815,157.3
7818,161.1
7819,82.8
7820,149.9
7822,127.1
7824,168.6
7826,123.5
7828,93.7
7829,141.0
7830,77.6
7833,156.4
7837,112.0
7838,165.1
7841,67.4
7844,132.0
7846,123.7
7848,104.2
7849,155.4
7852,117.3
7853,94.0
7854,69.9
7855,140.1
7856,133.8
7857,92.5
7859,139.9
7860,161.6
7862,151.2
7863,107.4
7864,144.8
7865,67.4
7867,91.0
7868,153.2
7869,142.3
7874,157.5
7876,85.4
7877,129.0
7884,129.8
7886,159.3
7887,72.5
7889,157.3
7891,137.2
7893,129.9
7899,85.4
7900,158.9
7903,117.6
7905,102.5
7907,112.0
7910,77.6
7911,107.2
7912,121.9
7913,112.2
7915,91.1
7916,116.1
7921,93.5
7922,64.8
7924,106.8
7926,151.8
7927,121.0
7929,146.7
7933,62.2
7934,114.5
7935,131.8
7936,170.7
7938,137.0
7942,130.9
7943,142.4
7945,57.1
7946,108.3
7952,110.6
7956,80.2
7958,91.5
7959,117.6
7960,157.9
7963,152.4
7965,93.7
7967,59.6
7968,143.9
7970,125.4
7972,103.8
7973,140.6
7974,112.2
7975,143.4
7976,156.3
7977,93.6
7978,109.1
7979,97.4
7980,72.5
7982,164.7
7984,139.2
7986,152.5
7989,117.2
7991,69.9
7992,113.0
7994,159.0
7995,91.4
7997,105.7
8002,59.6
8003,115.6
8004,93.4
8008,97.9
8010,151.0
8011,144.5
8012,128.6
8013,59.6
8014,133.7
8015,127.7
8018,140.0
8021,168.4
8022,99.3
8023,115.3
8025,57.1
8032,132.1
8033,124.9
8035,111.9
8036,82.8
8040,164.5
8046,132.9
8047,103.0
8048,67.4
8049,90.3
8050,132.8
8051,149.4
8053,158.8
8055,116.2
8056,142.6
8057,161.7
8059,72.5
8065,147.1
8070,156.1
8071,72.5
8072,112.7
8073,136.8
8075,103.1
8078,143.0
8079,108.0
8081,169.6
8082,64.8
8083,125.2
8085,150.4
8088,119.6
8091,135.0
8092,148.7
8093,64.8
8094,152.1
8098,103.6
8100,124.4
8102,129.4
8104,54.5
8105,166.1
8106,107.2
8107,159.6
8108,126.4
8109,147.4
8110,121.5
8111,104.9
8113,138.4
8115,143.9
8116,142.7
8117,77.6
8120,145.9
8122,120.5
8123,170.5
8124,133.4
8125,163.3
8127,152.7
8128,72.5
8132,128.4
8139,77.6
8140,131.1
8141,114.2
8142,102.0
8143,121.3
8144,119.7
8150,117.9
8151,75.1
8152,115.6
8153,141.1
8154,138.7
8155,91.9
8156,124.5
8158,102.5
8159,100.9
8160,149.4
8162,62.2
8165,108.0
8166,128.8
8168,126.9
8171,131.2
8173,67.4
8175,137.5
8176,170.4
8178,162.5
8185,57.1
8187,108.7
8188,145.7
8191,137.0
8194,92.9
8195,156.6
8196,152.6
8197,85.4
8198,125.1
8200,157.6
8201,161.6
8205,148.6
8208,80.2
8211,141.5
8212,126.7
8213,145.0
8214,135.3
8216,156.4
8219,77.6
8223,170.7
8227,137.6
8229,147.7
8230,75.1
8232,95.8
8233,154.9
8234,124.5
8235,115.7
8238,106.6
8239,133.0
8242,62.2
8244,171.1
8246,162.0
8248,134.7
8250,141.2
8251,93.3
8254,69.9
8255,127.1
8256,107.2
8261,132.2
8263,118.9
8265,57.1
8270,95.3
8272,130.5
8276,85.4
8277,94.8
8278,137.6
8282,120.3
8283,171.0
8284,152.5
8285,141.4
8288,87.9
8289,103.7
8291,157.8
8293,107.2
8295,111.6
8296,132.0
8299,77.6
8301,123.7
8302,133.1
8305,160.6
8307,168.7
8309,146.2
8310,69.9
8312,122.7
8313,102.4
8317,138.7
8319,145.9
8320,104.8
8322,166.7
8323,62.2
8324,154.5
8328,139.4
8330,141.8
8331,117.4
8332,97.2
8333,162.0
8334,72.5
8336,134.8
8338,102.7
8340,136.5
8342,154.7
8344,132.9
8345,62.2
8348,121.7
8350,143.8
8351,152.5
8352,131.9
8355,101.0
8356,87.9
8357,156.3
8360,143.2
8362,130.1
8364,165.1
8366,121.8
8368,77.6
8371,152.4
8372,169.2
8374,93.0
8376,99.7
8377,127.3
8378,100.8
8379,129.4
8380,64.8
8384,102.0
8385,135.5
8388,121.8
8389,139.7
8391,59.6
8392,108.9
8396,112.5
8399,147.9
8402,54.5
8404,144.3
8406,159.7
8407,144.2
8409,139.8
8410,127.2
8411,93.8
8412,148.5
8414,77.6
8416,93.6
8425,62.2
8430,130.2
8432,127.7
8435,140.4
8436,85.4
8437,160.7
8438,154.2
8439,160.9
8440,171.7
8442,105.7
8443,119.1
8444,126.6
8445,155.6
8448,126.3
8449,77.6
8451,150.7
8452,152.8
8455,158.9
8456,144.0
8460,64.8
8462,162.1
8463,98.2
8466,117.0
8467,141.8
8468,145.9
8469,152.9
8470,126.1
8471,59.6
8473,164.2
8474,119.3
8475,142.8
8476,133.0
8477,140.7
8478,145.4
8480,150.6
8481,132.4
8482,57.1
8484,148.3
8486,113.0
8490,93.7
8491,120.1
8492,131.7
8494,82.8
8498,107.2
8499,169.7
8500,115.5
8501,115.3
8502,129.6
8503,94.2
8505,64.8
8509,165.4
8510,98.4
8512,102.5
8513,108.6
8514,143.2
8516,116.5
8517,75.1
8519,94.0
8522,122.8
8523,171.2
8524,99.3
8526,141.5
8528,75.1
8529,122.3
8530,166.6
8531,133.8
8532,96.1
8533,93.1
8534,142.4
8537,162.0
8540,62.2
8542,126.9
8543,126.6
8544,94.4
8545,162.4
8551,59.6
8553,109.0
8555,169.8
8558,156.0
8560,141.5
8562,59.6
8565,119.3
8566,132.0
8568,111.6
8570,170.1
8572,137.1
8573,85.4
8575,114.1
8577,165.0
8583,171.2
8584,157.2
8586,69.9
8588,124.7
8589,160.2
8590,168.2
8594,156.8
8597,72.5
8599,95.4
8601,107.9
8604,101.0
8605,116.2
8607,107.9
8608,72.5
8609,130.9
8610,144.3
8613,161.2
8616,119.1
8617,167.5
8620,67.4
8622,120.0
8623,147.9
8624,103.1
8626,164.6
8627,144.9
8628,144.3
8629,109.1
8630,131.7
8631,69.9
8634,168.9
8636,153.5
8639,107.1
8640,93.1
8642,59.6
8644,136.3
8648,97.3
8650,135.9
8653,165.6
8654,90.5
8656,144.3
8657,142.7
8662,171.7
8663,108.6
8665,104.4
8666,75.1
8669,97.4
8673,160.1
8676,150.4
8677,75.1
8678,95.7
8680,118.5
8683,150.6
8684,134.1
8687,137.8
8688,75.1
8689,155.4
8693,92.0
8697,128.3
8699,64.8
8700,107.0
8701,113.9
8703,121.5
8705,128.6
8706,110.9
8707,104.5
8710,100.0
8711,150.9
8712,69.9
8717,136.9
8718,134.7
8719,143.3
8721,165.6
8723,57.1
8728,129.9
8731,150.7
8732,165.7
8733,140.0
8734,85.4
8735,124.8
8737,126.2
8741,117.6
8744,167.8
8745,80.2
8752,163.6
8753,96.3
8757,72.5
8759,144.5
8761,123.2
8763,135.2
8765,142.9
8768,72.5
8771,167.3
8772,163.1
8773,98.1
8775,154.6
8776,114.6
8777,112.4
8780,64.8
8781,129.3
8784,147.3
8785,94.8
8787,138.4
8789,157.0
8790,106.7
8792,72.5
8794,129.9
8795,126.9
8796,92.1
8797,171.7
8800,138.5
8801,149.0
8803,59.6
8804,100.3
8811,123.2
8814,85.4
8818,144.5
8820,171.7
8823,169.6
8824,153.2
8825,80.2
8828,92.4
8829,102.4
8837,77.6
8839,168.9
8840,142.0
8842,169.5
8843,151.4
8844,137.2
8848,143.0
8849,72.5
8851,121.5
8853,157.2
8854,99.6
8857,163.0
8858,124.1
8859,127.1
8860,67.4
8862,100.1
8863,151.2
8867,171.2
8869,123.9
8871,77.6
8875,168.1
8876,90.1
8877,171.8
8879,151.2
8880,165.1
8881,112.8
8883,59.6
8885,156.5
8888,165.6
8890,101.0
8892,159.6
8894,85.4
8895,100.5
8896,145.8
8898,170.3
8901,112.0
8902,138.2
8904,93.2
8905,82.8
8907,163.8
8909,107.1
8911,125.9
8915,124.7
8917,108.1
8918,72.5
8919,124.5
8922,119.4
8924,150.7
8926,97.7
8927,160.9
8928,140.4
8929,64.8
8930,116.8
8931,142.1
8935,112.6
8936,123.1
8939,112.5
8940,57.1
8941,92.2
8942,103.5
8943,110.1
8948,160.4
8949,95.1
8951,75.1
8952,114.9
8957,122.4
8958,119.6
8960,162.3
8962,101.5
8963,57.1
8964,156.3
8965,156.7
8966,99.0
8967,121.5
8969,130.1
8971,100.5
8972,107.9
8974,80.2
8977,136.5
8980,154.1
8981,119.2
8986,82.8
8991,164.2
8992,121.3
8993,140.2
8995,117.5
8997,69.9
8999,137.8
9002,103.0
9006,105.0
9009,64.8
9010,146.2
9012,120.8
9013,162.2
9014,156.6
9020,59.6
9028,114.5
9029,93.7
9030,107.7
9031,77.6
9040,160.4
9041,155.0
9042,64.8
9044,156.8
9045,116.5
9049,169.8
9054,150.9
9055,82.8
9056,117.4
9057,95.2
9060,149.2
9061,107.1
9065,166.8
9066,82.8
9069,169.4
9070,153.9
9074,165.9
9075,111.0
9077,67.4
9078,135.0
9079,129.5
9081,104.8
9082,164.7
9083,108.8
9085,90.1
9087,128.4
9089,59.6
9090,109.8
9091,109.1
9092,110.7
9094,119.6
9095,121.0
9096,150.6
9097,96.9
9100,54.5
9103,146.3
9108,114.0
9111,158.0
9112,80.2
9113,102.2
9114,97.6
9116,111.4
9117,154.1
9119,127.6
9120,132.4
9123,72.5
9124,138.4
9125,116.0
9126,95.2
9128,161.7
9130,90.7
9135,80.2
9141,91.1
9142,116.4
9146,77.6
9147,110.0
9148,130.6
9149,125.7
9152,97.8
9153,105.9
9156,147.3
9157,62.2
9158,156.0
9159,131.2
9160,94.9
9161,149.3
9163,133.9
9164,169.1
9165,97.0
9168,62.2
9172,106.9
9173,96.9
9174,97.6
9178,95.3
9181,59.6
9182,108.8
9189,129.5
9190,123.8
9192,90.5
9193,141.8
9194,167.5
9195,91.2
9196,155.5
9197,96.4
9198,127.4
9199,93.7
9200,145.1
9201,141.7
9203,80.2
9209,116.2
9214,82.8
9215,114.7
9219,117.1
9220,127.2
9222,94.3
9226,72.5
9229,142.7
9230,143.4
9232,90.2
9233,160.8
9237,62.2
9239,157.4
9240,143.8
9241,110.0
9243,156.3
9244,95.9
9249,62.2
9253,167.2
9254,104.7
9255,150.9
9256,91.0
9258,92.7
9259,105.1
9261,54.5
9262,94.4
9263,168.6
9264,125.4
9267,117.5
9268,143.1
9269,167.3
9271,164.6
9272,87.9
9273,91.5
9276,116.8
9279,158.1
9283,75.1
9284,103.8
9287,150.8
9288,97.9
9290,154.6
9292,92.2
9293,123.5
9294,69.9
9300,93.0
9304,115.8
9305,111.0
9306,64.8
9307,150.6
9308,136.4
9310,91.6
9311,170.6
9312,122.9
9313,163.2
9314,106.9
9318,59.6
9320,150.7
9326,101.5
9327,101.1
9328,101.2
9329,67.4
9330,93.1
9332,171.3
9335,109.0
9339,170.1
9340,59.6
9341,100.7
9342,144.5
9344,93.9
9347,121.0
9348,143.7
9349,97.8
9350,144.4
9352,85.4
9353,140.3
9354,93.8
9355,96.2
9357,152.2
9362,111.0
9363,72.5
9364,115.2
9365,108.3
9370,98.3
9372,108.7
9374,69.9
9375,104.3
9376,104.9
9378,121.1
9383,169.8
9385,155.3
9386,103.0
9387,72.5
9388,150.1
9389,110.8
9391,158.3
9395,123.8
9396,113.2
9398,67.4
9400,100.4
9403,115.0
9405,131.0
9406,114.5
9407,155.9
9409,77.6
9410,140.0
9411,125.1
9412,90.4
9413,111.6
9420,64.8
9422,132.0
9424,125.2
9425,111.9
9429,151.1
9430,149.8
9431,137.8
9432,87.9
9434,119.2
9435,125.9
9437,127.2
9440,144.9
9441,141.3
9443,161.1
9444,77.6
9450,109.9
9455,72.5
9457,144.3
9459,135.1
9461,141.3
9465,104.5
9466,67.4
9467,128.7
9470,109.0
9471,123.2
9474,153.5
9475,117.4
9477,104.6
9478,59.6
9480,121.5
9482,168.7
9483,120.4
9484,117.3
9485,159.5
9486,111.9
9488,152.7
9489,77.6
9491,122.0
9492,102.9
9494,154.6
9500,57.1
9504,161.5
9505,131.9
9506,140.8
9507,124.2
9509,114.6
9512,75.1
9513,111.9
9514,154.2
9515,120.3
9517,110.4
9518,159.6
9519,147.2
9520,103.1
9524,72.5
9525,162.0
9528,153.8
9529,167.8
9531,165.8
9532,122.3
9535,64.8
9537,149.0
9539,144.7
9540,117.7
9542,136.0
9543,147.3
9544,147.4
9546,59.6
9550,123.4
9553,152.5
9556,162.2
9558,57.1
9559,137.3
9560,162.8
9561,151.3
9562,102.6
9563,106.6
9566,164.7
9569,75.1
9571,151.9
9572,121.8
9574,165.7
9578,102.4
9579,98.5
9581,59.6
9584,128.9
9587,102.8
9588,127.5
9589,142.9
9590,166.6
9592,77.6
9594,168.0
9598,151.1
9599,134.9
9600,108.4
9601,112.3
9602,167.1
9604,82.8
9605,113.5
9607,135.0
9608,131.0
9612,125.2
9615,72.5
9616,144.8
9621,92.1
9623,154.4
9626,64.8
9628,122.3
9630,134.1
9631,114.3
9632,128.6
9636,142.4
9637,57.1
9642,140.5
9645,151.7
9649,152.2
9650,82.8
9651,154.6
9654,96.3
9655,97.9
9656,160.6
9657,145.3
9659,131.0
9661,72.5
9664,98.3
9665,163.5
9669,132.3
9670,106.1
9671,127.9
9672,82.8
9673,92.4
9675,91.9
9679,156.1
9681,128.9
9683,77.6
9687,121.1
9688,128.7
9691,103.6
9693,158.1
9694,90.3
9695,62.2
9697,97.8
9698,134.0
9701,124.7
9703,129.5
9704,135.4
9706,62.2
9713,148.3
9715,135.6
9718,51.9
9723,101.5
9724,150.0
9725,137.1
9729,99.7
9730,80.2
9732,170.3
9738,170.3
9741,77.6
9742,122.7
9743,106.1
9749,153.0
9750,154.2
9752,77.6
9754,126.2
9755,105.1
9756,142.7
9757,158.7
9758,151.4
9759,171.3
9760,141.9
9761,121.9
9762,147.6
9763,72.5
9764,118.2
9766,123.2
9771,165.2
9772,105.7
9773,98.9
9775,59.6
9779,101.4
9780,166.3
9785,160.6
9787,59.6
9788,138.3
9789,163.7
9790,90.9
9791,122.4
9792,137.0
9793,131.5
9794,144.5
9797,171.5
9798,49.3
9801,99.0
9806,142.6
9808,147.6
9809,82.8
9810,121.4
9811,114.0
9812,127.7
9814,140.9
9815,127.0
9816,145.1
9817,123.8
9821,82.8
9824,162.9
9826,108.4
9832,77.6
9835,116.9
9838,139.2
9840,92.7
9841,168.4
9842,98.8
9843,118.7
9844,69.9
9846,153.4
9848,92.3
9849,122.9
9851,148.9
9853,136.6
9855,112.3
9856,59.6
9860,138.0
9861,152.4
9863,96.7
9865,108.6
9866,112.3
9867,64.8
9868,112.3
9869,129.1
9870,144.6
9871,158.3
9872,143.9
9873,106.8
9875,146.2
9877,133.7
9878,54.5
9882,98.2
9884,93.7
9885,136.2
9886,155.4
9888,111.8
9889,82.8
9890,149.7
9891,168.3
9892,160.9
9894,130.5
9897,107.8
9899,96.1
9900,110.6
9901,77.6
9903,134.6
9906,98.5
9907,90.9
9908,113.2
9913,69.9
9914,143.7
9915,138.4
9916,143.9
9919,153.3
9920,93.9
9922,115.5
9924,62.2
9927,163.7
9928,103.2
9929,164.8
9931,102.3
9933,136.1
9935,54.5
9936,162.3
9939,160.0
9940,165.9
9941,123.1
9943,134.6
9946,92.7
9947,69.9
9950,169.1
9951,161.8
9952,139.4
9953,110.2
9958,59.6
9959,101.8
9960,168.3
9961,153.1
9963,111.1
9964,163.4
9966,166.6
9967,114.8
9969,85.4
9974,111.4
9976,102.8
9979,94.9
9981,77.6
9984,116.2
9985,96.1
9986,95.0
9989,129.2
9991,170.7
9992,97.9
9993,64.8
9995,158.7
9996,166.1
10000,98.2
10004,59.6
10005,165.5
10008,121.3
10009,96.5
10011,154.6
10014,98.1
10015,147.6
10016,51.9
10017,97.1
10019,130.6
10020,106.7
10021,101.1
10022,147.8
10025,137.8
10029,82.8
10032,115.4
10033,159.5
10034,91.3
10035,101.1
10039,164.3
10040,144.9
10041,82.8
10042,90.4
10044,169.6
10046,132.7
10047,155.8
10050,97.2
10051,97.5
10052,100.9
10053,133.8
10054,62.2
10055,159.8
10056,114.5
10057,101.2
10060,129.7
10061,147.2
10062,153.4
10063,139.8
10064,169.5
10066,69.9
10067,129.1
10068,131.8
10069,130.3
10074,114.2
10075,125.2
10077,139.6
10078,109.6
10079,64.8
10082,154.7
10084,96.5
10085,165.3
10087,130.9
10090,140.4
10091,72.5
10092,99.1
10093,170.8
10096,100.0
10097,137.4
10098,113.5
10099,110.5
10103,59.6
10106,102.4
10108,118.6
10110,161.9
10112,96.2
10115,109.5
10116,165.4
10117,59.6
10119,107.9
10120,94.2
10123,138.9
10125,125.5
10126,144.3
10127,121.9
10128,123.3
10129,82.8
10130,110.8
10131,118.2
10137,103.7
10141,72.5
10153,59.6
10155,116.5
10156,152.1
10157,130.7
10158,115.6
10161,96.2
10162,101.4
10163,119.8
10164,129.9
10165,156.3
10166,72.5
10167,166.6
10168,128.3
10170,134.5
10171,147.8
10173,112.6
10174,133.1
10175,164.6
10177,124.9
10179,72.5
10180,139.6
10183,131.5
10184,170.5
10185,139.0
10186,170.5
10188,92.5
10189,98.7
10190,171.2
10191,72.5
10193,147.5
10194,117.9
10197,127.0
10199,167.0
10200,165.2
10204,59.6
10205,107.1
10206,119.9
10212,131.4
10214,162.7
10215,159.8
10216,49.3
10219,105.1
10220,142.3
10221,97.1
10223,102.8
10225,123.1
10228,77.6
10231,152.4
10232,119.7
10233,120.1
10234,111.2
10235,161.7
10237,129.1
10240,144.4
10241,72.5
10242,96.8
10247,160.4
10251,143.6
10252,112.5
10253,158.8
10254,64.8
10255,90.4
10257,157.1
10258,131.8
10259,168.4
10262,124.5
10263,104.8
10264,93.3
10266,77.6
10270,147.4
10271,126.5
10272,156.3
10274,161.9
10276,90.3
10278,72.5
10282,142.3
10285,156.6
10286,123.6
10288,139.2
10291,64.8
10292,145.1
10294,171.0
10295,155.9
10296,98.2
10297,101.1
10298,101.5
10300,128.7
10303,57.1
10304,103.8
10306,131.1
10309,99.1
10313,118.8
10314,155.0
10316,57.1
10317,103.2
10318,108.8
10321,135.3
10324,104.8
10325,135.6
10326,113.3
10327,134.0
10329,82.8
10331,128.6
10335,161.0
10336,133.1
10340,119.3
10341,69.9
10342,139.7
10344,138.8
10348,92.6
10350,112.4
10353,54.5
10354,93.2
10356,151.6
10357,112.0
10361,139.6
10362,99.5
10364,120.6
10365,72.5
10368,154.1
10370,147.8
10371,166.8
10375,118.5
10376,92.4
10378,159.9
10379,75.1
10380,153.5
10382,105.9
10387,169.3
10391,69.9
10394,167.4
10395,166.1
10396,103.5
10397,142.7
10398,138.5
10400,165.7
10401,90.6
10403,57.1
10410,166.2
10411,113.7
10415,142.4
10416,49.3
10418,166.8
10419,119.5
10421,130.1
10422,170.4
10425,139.1
10426,128.1
10427,109.7
10428,75.1
10433,100.5
10435,134.3
10438,159.8
10440,67.4
10446,91.9
10449,114.6
10451,141.0
10454,59.6
10455,164.6
10459,148.4
10460,117.0
10462,114.7
10463,140.3
10464,161.5
10466,80.2
10467,100.4
10468,152.5
10470,152.4
10472,97.8
10473,143.8
10476,113.6
10478,69.9
10480,135.6
10481,155.6
10483,113.6
10484,162.5
10487,100.6
10488,93.0
10489,97.0
10490,57.1
10493,131.8
10495,135.5
10497,140.0
10499,91.9
10500,108.2
10501,118.2
10502,170.5
10503,57.1
10504,135.9
10508,148.3
10511,92.0
10516,57.1
10517,171.6
10518,128.1
10520,138.0
10524,99.5
10525,102.0
10527,108.2
10528,80.2
10529,144.2
10530,149.5
10531,148.9
10532,110.5
10533,165.3
10535,109.6
10536,149.1
10537,138.9
10539,91.1
10541,72.5
10545,156.8
10547,135.3
10553,54.5
10555,168.5
10557,165.0
10558,154.3
10560,138.6
10563,115.1
10565,77.6
10571,153.0
10574,134.7
10576,112.8
10578,72.5
10580,137.2
10582,150.4
10584,158.4
10585,139.4
10589,125.3
10590,142.3
10591,64.8
10592,146.5
10593,119.5
10594,102.6
10595,139.8
10597,134.5
10599,91.2
10601,95.5
10603,64.8
10605,94.0
10606,117.2
10608,127.7
10609,109.1
10610,152.0
10613,120.4
10614,163.3
10615,54.5
10616,96.8
10618,116.1
10619,126.4
10620,97.6
10622,108.3
10623,144.4
10627,95.7
10628,72.5
10629,138.2
10632,135.3
10633,101.5
10634,108.0
10636,91.7
10637,113.0
10638,129.3
10639,122.7
10640,62.2
10643,140.3
10645,142.5
10646,159.6
10648,114.3
10650,114.7
10653,54.5
10655,153.5
10656,130.9
10658,164.6
10659,116.5
10660,161.9
10661,90.8
10662,113.1
10664,105.1
10665,82.8
10668,151.0
10676,163.9
10678,77.6
10679,104.3
10680,114.7
10681,90.4
10682,92.6
10683,96.6
10687,148.2
10690,59.6
10697,115.2
10698,149.1
10700,118.0
10701,167.3
10702,59.6
10703,122.7
10704,98.9
10705,133.8
10706,115.9
10707,113.1
10709,168.4
10711,166.1
10714,121.5
10716,59.6
10718,158.4
10720,136.2
10721,121.1
10722,103.3
10723,103.5
10724,127.1
10725,109.6
10726,152.6
10727,108.2
10728,77.6
10729,101.8
10730,155.2
10731,145.4
10735,113.9
10739,104.9
10740,69.9
10742,108.2
10744,96.8
10746,142.5
10747,165.6
10748,101.4
10752,121.7
10753,57.1
10756,93.8
10758,91.7
10762,157.9
10765,82.8
10768,139.6
10771,122.2
10772,164.2
10773,146.6
10775,139.2
10778,75.1
10782,126.3
10783,98.1
10784,114.2
10785,102.9
10787,101.4
10790,62.2
10792,100.7
10794,114.8
10795,123.4
10796,134.4
10802,153.1
10803,64.8
10804,164.2
10805,119.5
10806,109.7
10808,104.4
10810,123.3
10812,139.5
10813,128.9
10814,171.2
10815,67.4
10819,90.4
10820,108.1
10821,100.3
10822,119.1
10823,92.7
10826,107.7
10827,75.1
10828,158.8
10832,138.1
10834,131.0
10837,114.8
10839,154.0
10840,64.8
10842,157.3
10845,90.6
10846,102.4
10847,124.3
10851,145.1
10852,94.0
10853,54.5
10854,137.3
10857,142.7
10859,107.4
10860,140.8
10862,130.1
10865,82.8
10869,130.0
10874,139.5
10876,90.2
10877,80.2
10878,143.0
10879,105.1
10881,137.7
10883,118.0
10888,98.2
10890,64.8
10891,102.0
10893,159.0
10896,120.9
10897,148.9
10899,113.0
10900,130.4
10901,132.2
10902,67.4
10905,120.2
10906,169.5
10910,115.3
10913,149.6
10915,62.2
10918,137.5
10922,141.0
10924,163.7
10928,75.1
10929,108.6
10932,113.4
10935,153.9
10939,149.6
10940,64.8
10946,170.1
10947,101.2
10948,109.2
10949,168.9
10950,143.4
10951,128.4
10952,62.2
10953,165.1
10956,133.8
10964,90.5
10965,96.2
10966,117.2
10967,113.7
10969,150.2
10970,158.7
10971,126.4
10972,154.2
10973,99.7
10974,114.2
10977,152.1
10978,77.6
10979,106.1
10980,140.4
10981,164.8
10983,165.4
10988,144.9
10990,59.6
10992,169.9
10994,125.1
10995,124.5
10996,125.1
10998,94.8
10999,104.5
11001,128.6
11002,67.4
11003,163.5
11005,124.3
11006,100.3
11010,154.3
11013,103.1
11015,64.8
11016,97.1
11019,147.4
11023,116.3
11026,134.9
11027,69.9
11028,123.4
11034,96.1
11039,64.8
11041,149.2
11042,94.9
11043,100.8
11044,95.7
11045,99.3
11046,129.2
11047,134.9
11053,54.5
11057,166.0
11058,92.0
11061,141.6
11063,129.2
11065,80.2
11066,125.1
11067,117.5
11069,101.1
11073,106.3
11074,129.9
11075,134.2
11077,75.1
11078,138.0
11080,95.9
11082,101.3
11083,157.1
11084,132.4
11089,62.2
11090,113.3
11091,132.0
11095,124.0
11097,164.8
11100,96.9
11102,77.6
11103,113.5
11104,102.5
11106,115.5
11110,91.8
11111,92.4
11114,151.2
11115,69.9
11116,127.2
11118,117.6
11119,164.5
11120,136.7
11121,134.1
11124,164.4
11127,69.9
11131,102.2
11134,109.9
11135,147.2
11136,107.0
11137,111.3
11139,118.3
11140,59.6
11144,144.0
11148,131.2
11150,121.2
11152,49.3
11153,140.2
11155,100.4
11161,129.3
11162,169.1
11163,148.5
11164,80.2
11167,98.5
11169,144.0
11170,106.5
11173,146.0
11175,123.8
11176,136.8
11177,75.1
11178,162.4
11180,117.9
11181,107.2
11185,133.0
11186,93.4
11187,98.1
11188,112.5
11190,59.6
11195,161.4
11196,156.8
11197,155.9
11198,103.4
11199,125.1
11200,114.0
11201,125.3
11202,75.1
11206,161.0
11210,161.9
11213,161.5
11214,67.4
11218,120.2
11223,156.0
11227,62.2
11228,130.0
11229,171.5
11234,115.9
11238,118.3
11239,54.5
11240,168.9
11244,164.6
11247,130.1
11249,158.4
11252,59.6
11254,145.2
11257,115.7
11258,151.6
11262,140.3
11263,170.1
11265,85.4
11266,111.3
11270,126.2
11271,114.1
11272,124.9
11273,103.5
11274,156.8
11275,137.4
11276,148.1
11277,69.9
11278,158.1
11280,91.8
11281,123.4
11284,101.3
11285,90.5
11286,123.9
11289,54.5
11290,100.6
11292,136.5
11297,116.8
11299,133.8
11301,75.1
11303,117.4
11304,99.0
11305,157.1
11306,94.4
11307,124.6
11308,100.4
11309,126.7
11311,124.3
11312,130.4
11313,139.0
11315,75.1
11316,109.0
11320,116.2
11321,91.8
11322,126.1
11325,153.8
11326,111.1
11327,69.9
11331,161.9
11336,161.1
11338,96.0
11339,57.1
11342,137.2
11344,114.7
11347,161.2
11351,143.9
11352,54.5
11354,163.9
11356,105.3
11360,154.6
11361,114.0
11363,130.5
11364,80.2
11365,135.1
11368,160.3
11369,166.7
11370,147.3
11371,149.9
11372,90.5
11374,164.7
11375,169.7
11376,149.3
11377,67.4
11380,128.0
11389,59.6
11391,161.9
11392,120.6
11401,160.8
11402,82.8
11403,113.9
11404,143.7
11406,127.6
11410,106.7
11414,72.5
11415,143.3
11418,133.4
11421,97.7
11423,127.1
11424,145.8
11426,64.8
11428,167.6
11431,170.8
11432,101.8
11433,109.9
11434,126.5
11435,150.0
11438,102.8
11439,57.1
11440,94.6
11442,136.5
11443,147.7
11444,116.0
11445,148.9
11446,122.4
11448,122.8
11450,149.8
11451,91.0
11452,54.5
11453,106.2
11455,141.7
11464,77.6
11465,145.0
11467,159.6
11470,154.3
11471,156.3
11474,125.0
11476,72.5
11478,90.4
11479,95.5
11481,101.3
11483,155.1
11484,102.4
11489,57.1
11490,157.4
11491,159.0
11493,163.1
11500,149.0
11501,77.6
11502,132.5
11507,131.3
11508,112.0
11509,121.8
11510,110.8
11511,169.1
11513,134.5
11514,72.5
11516,106.8
11518,151.7
11519,124.7
11521,127.0
11523,137.3
11527,67.4
11528,91.9
11530,154.8
11531,103.6
11533,170.1
11539,64.8
11540,134.3
11542,123.2
11544,149.4
11547,142.3
11549,147.2
11551,57.1
11554,121.3
11556,159.8
11557,142.5
11558,110.8
11559,165.2
11560,163.0
11564,75.1
11566,161.9
11569,139.2
11570,92.0
11571,170.8
11576,165.2
11577,69.9
11578,113.0
11580,148.6
11581,94.3
11583,161.1
11586,101.9
11588,141.0
11589,62.2
11590,152.6
11591,97.7
11592,136.2
11593,107.6
11596,94.1
11601,87.9
11602,143.6
11603,163.0
11604,90.1
11608,98.9
11614,85.4
11619,117.2
11621,122.1
11623,129.0
11624,154.5
11625,133.5
11626,67.4
11630,146.7
11631,148.1
11632,94.9
11633,162.0
11635,107.8
11637,133.0
11638,64.8
11640,131.8
11642,142.4
11645,149.7
11651,92.9
11652,57.1
11654,110.9
11656,95.6
11659,113.1
11660,112.3
11663,95.2
11664,77.6
11666,123.3
11669,163.3
11672,117.9
11675,146.3
11676,62.2
11677,158.4
11680,105.7
11682,142.0
11684,98.4
11685,132.2
11686,107.8
11687,115.4
11688,51.9
11690,116.2
11691,131.5
11694,106.2
11696,141.2
11697,91.0
11698,165.6
11699,132.3
11700,116.1
11701,80.2
11702,113.1
11705,99.0
11707,158.9
11713,127.0
11714,69.9
11715,111.5
11722,97.5
11723,166.0
11724,93.1
11725,162.9
11726,57.1
11727,154.8
11728,143.9
11729,123.2
11730,139.7
11732,146.9
11733,143.0
11734,106.7
11739,62.2
11742,147.5
11743,125.7
11744,98.7
11749,132.3
11750,121.9
11751,62.2
11754,170.4
11759,132.4
11760,124.6
11761,97.0
11763,72.5
11764,136.8
11769,157.8
11775,121.6
11777,59.6
11778,119.2
11779,150.3
11783,132.7
11784,144.4
11786,103.1
11787,95.4
11788,161.3
11789,54.5
11790,149.0
11793,160.9
11795,117.3
11796,170.3
11797,107.0
11799,105.5
11801,82.8
11802,119.2
11803,134.2
11805,138.2
11806,124.6
11807,126.1
11810,102.3
11813,80.2
11814,120.3
11815,119.9
11820,109.6
11821,110.3
11822,143.8
11825,153.2
11826,67.4
11828,131.8
11831,113.1
11834,121.8
11835,144.1
11838,72.5
11839,97.7
11840,164.2
11842,147.4
11845,117.5
11846,93.6
11847,145.9
11850,134.2
11851,62.2
11852,112.0
11854,124.9
11855,134.9
11856,139.6
11857,107.1
11861,156.8
11862,153.7
11864,72.5
11866,90.5
11868,154.7
11869,118.0
11871,102.9
11872,157.7
11874,104.7
11875,151.8
11876,62.2
11877,125.3
11884,135.9
11885,143.1
11888,54.5
11889,110.9
11890,95.7
11891,120.4
11893,150.6
11894,95.0
11900,85.4
11906,116.2
11907,161.7
11908,120.4
11912,114.6
11914,77.6
11915,98.7
11916,109.6
11917,155.9
11920,128.3
11925,105.6
11926,59.6
11927,165.1
11928,133.9
11930,136.3
11932,128.7
11938,69.9
11941,162.7
11943,159.1
11944,142.4
11946,152.8
11951,67.4
11952,108.3
11953,160.9
11957,159.3
11958,167.9
11963,75.1
11964,155.1
11965,128.5
11966,165.4
11971,167.9
11972,99.5
11973,162.1
11974,131.1
11976,62.2
11977,101.5
11980,100.5
11981,150.1
11982,143.5
11983,165.6
11985,106.3
11987,154.0
11988,54.5
11990,95.0
11991,126.3
11992,96.8
11993,96.0
11999,157.8
12001,80.2
12002,148.7
12005,112.8
12007,105.9
12008,145.4
12010,130.1
12011,162.9
12012,169.1
12013,72.5
12016,118.6
12017,144.0
12018,159.6
12020,146.7
12021,126.7
12023,128.5
12025,57.1
12026,152.1
12027,158.4
12031,154.3
12032,164.1
12033,166.6
12038,69.9
12039,145.6
12040,137.8
12041,128.9
12042,120.8
12043,148.2
12044,125.6
12045,153.3
12046,123.0
12051,69.9
12053,127.3
12055,114.3
12056,139.8
12060,149.3
12063,69.9
12065,121.0
12068,160.1
12069,106.0
12070,153.9
12072,91.3
12074,140.4
12075,120.1
12076,57.1
12077,103.2
12078,157.6
12082,113.1
12084,101.3
12085,145.3
12087,145.9
12088,49.3
12089,119.9
12090,154.0
12093,141.2
12097,168.5
12098,104.9
12099,158.7
12100,82.8
12104,137.5
12106,152.3
12110,110.0
12112,141.1
12113,69.9
12115,91.1
12116,91.7
12118,146.8
12121,129.2
12126,59.6
12129,109.9
12131,94.1
12134,99.3
12136,130.4
12137,142.5
12138,75.1
12141,99.4
12144,164.4
12146,117.0
12147,151.1
12150,67.4
12151,97.9
12155,95.7
12156,148.1
12158,164.6
12161,124.4
12163,67.4
12167,92.5
12168,92.7
12172,122.9
12173,136.0
12176,59.6
12181,148.9
12183,144.9
12185,159.3
12187,164.6
12188,57.1
12191,139.0
12192,160.8
12194,165.3
12197,106.7
12198,116.1
12200,85.4
12203,131.6
12204,148.5
12211,119.4
12212,163.3
12213,75.1
12217,139.2
12220,98.8
12225,57.1
12226,136.8
12227,128.7
12228,97.5
12232,110.7
12233,109.9
12234,163.5
12236,131.4
12237,77.6
12238,123.9
12240,142.0
12243,160.0
12244,145.7
12245,109.7
12246,102.8
12248,161.9
12251,72.5
12253,97.5
12255,171.6
12257,130.6
12258,101.4
12260,143.9
12262,124.7
12263,69.9
12264,102.0
12266,132.5
12267,115.5
12270,134.2
12275,62.2
12277,111.6
12282,162.9
12284,163.9
12288,54.5
12289,171.1
12292,130.8
12293,100.5
12294,90.2
12299,156.5
12300,77.6
12301,146.5
12302,150.2
12305,143.9
12307,91.7
12312,122.1
12313,72.5
12318,94.1
12319,114.9
12323,151.2
12325,57.1
12327,154.8
12329,116.2
12330,138.3
12331,135.9
12333,117.7
12334,107.1
12335,101.7
12336,161.9
12338,82.8
12339,122.9
12345,143.4
12349,149.8
12350,72.5
12351,162.1
12355,147.1
12356,106.2
12360,109.2
12361,163.7
12362,62.2
12364,159.3
12365,164.6
12370,121.3
12373,148.4
12374,158.3
12375,106.5
12376,59.6
12380,91.1
12381,164.4
12383,94.7
12384,93.1
12385,94.3
12386,157.3
12387,138.3
12388,57.1
12393,95.4
12400,82.8
12401,126.4
12402,99.3
12404,90.3
12408,167.1
12409,160.0
12410,133.6
12412,72.5
12413,93.7
12415,133.2
12421,170.6
12423,108.9
12425,59.6
12430,147.3
12431,112.9
12434,117.5
12436,162.2
12437,82.8
12438,139.2
12439,104.7
12441,146.0
12443,141.0
12446,108.9
12449,165.7
12450,85.4
12452,147.9
12453,141.9
12454,124.2
12455,97.3
12456,153.2
12458,122.3
12461,133.8
12463,77.6
12464,142.7
12466,132.0
12468,156.5
12470,101.5
12472,101.2
12473,142.1
12475,72.5
12476,132.6
12478,118.6
12479,170.7
12482,152.4
12485,114.9
12487,67.4
12489,127.6
12491,147.2
12493,111.0
12495,127.6
12498,90.3
12499,82.8
12503,118.5
12504,148.9
12506,96.0
12507,157.9
12508,171.8
12511,93.0
12512,118.6
12513,72.5
12514,135.0
12520,107.4
12523,153.9
12525,62.2
12527,110.0
12528,160.7
12530,125.5
12532,166.2
12534,139.6
12535,140.7
12536,113.8
12537,90.5
12539,101.4
12540,135.7
12545,171.0
12546,151.3
12547,101.5
12550,80.2
12552,124.6
12553,109.1
12556,171.9
12557,150.1
12558,119.2
12560,92.4
12561,149.7
12562,64.8
12563,123.3
12565,129.8
12566,129.3
12567,161.1
12568,131.7
12569,129.3
12570,161.3
12573,100.3
12574,133.5
12575,64.8
12576,156.5
12577,107.8
12579,166.0
12583,125.5
12584,133.1
12585,144.5
12587,119.3
12588,62.2
12595,97.2
12596,143.7
12597,162.1
12598,154.1
12599,103.2
12600,80.2
12605,165.8
12606,104.1
12609,103.0
12611,124.9
12612,67.4
12615,125.7
12616,132.2
12618,146.7
12620,90.9
12622,147.3
12624,59.6
12625,106.0
12627,142.8
12630,97.0
12636,122.4
12637,82.8
12638,157.0
12639,103.9
12640,135.1
12641,142.5
12643,145.4
12645,148.6
12649,169.3
12650,75.1
12652,90.1
12654,113.9
12659,137.9
12661,156.3
12662,67.4
12667,136.4
12669,98.7
12674,116.5
12675,72.5
12676,141.0
12677,129.4
12682,102.5
12683,116.5
12687,69.9
12690,139.5
12692,130.7
12693,114.3
12695,135.0
12697,105.4
12698,135.7
12699,77.6
12704,168.7
12705,133.6
12706,116.0
12707,165.8
12709,165.3
12710,167.2
12711,113.9
12712,67.4
12713,153.4
12716,99.0
12717,167.7
12718,121.8
12719,129.6
12725,57.1
12726,137.8
12728,136.9
12731,168.2
12732,101.4
12733,168.5
12734,160.8
12735,161.1
12736,118.8
12737,87.9
12738,97.6
12739,133.7
12743,96.6
12744,99.4
12746,170.1
12747,133.1
12749,82.8
12753,93.2
12754,161.6
12757,119.6
12760,93.6
12762,67.4
12765,148.9
12766,105.1
12767,112.1
12768,147.7
12769,104.8
12772,167.7
12773,136.0
12774,162.9
12775,69.9
12778,118.7
12781,128.0
12782,94.1
12783,109.1
12784,91.4
12787,67.4
12791,101.6
12794,106.1
12795,100.1
12796,149.9
12800,77.6
12803,102.3
12805,142.0
12806,95.2
12807,131.6
12808,158.5
12811,93.0
12812,69.9
12813,112.6
12814,136.9
12818,169.5
12819,122.9
12820,142.7
12821,118.3
12824,64.8
12825,171.6
12826,103.3
12829,159.8
12830,123.5
12831,107.3
12833,99.8
12835,136.0
12836,93.1
12838,121.5
12839,162.7
12840,91.1
12842,168.1
12843,142.4
12844,91.6
12845,101.2
12846,111.5
12847,104.2
12848,121.6
12850,80.2
12852,148.3
12855,101.4
12858,147.5
12860,137.1
12862,62.2
12864,119.8
12866,128.5
12869,155.0
12870,142.1
12871,171.5
12872,147.2
12874,72.5
12875,116.8
12876,162.5
12881,146.6
12884,156.2
12885,152.5
12886,115.0
12887,80.2
12890,167.6
12897,168.8
12899,82.8
12900,120.1
12901,123.5
12902,153.7
12903,130.7
12904,94.1
12907,121.2
12908,164.1
12909,154.7
12910,119.7
12911,114.9
12912,69.9
12913,167.1
12915,107.9
12916,117.1
12918,95.4
12920,121.2
12924,59.6
12933,125.2
12934,135.0
12935,134.0
12937,87.9
12939,157.5
12941,119.0
12942,161.7
12943,106.3
12944,151.3
12945,111.9
12947,106.3
12948,114.3
12949,85.4
12952,150.8
12953,108.7
12956,167.1
12957,119.0
12958,134.9
12959,125.2
12960,103.1
12961,69.9
12963,124.2
12964,130.6
12966,125.6
12968,122.1
12970,114.6
12973,115.7
12975,82.8
12976,102.6
12977,160.6
12981,156.5
12987,77.6
12989,128.8
12990,133.0
12994,90.4
12996,131.6
12999,77.6
13001,139.9
13004,110.0
13006,153.4
13011,69.9
13013,143.3
13014,153.3
13016,140.0
13020,107.9
13022,158.0
13023,110.6
13024,69.9
13029,110.0
13030,170.0
13031,125.3
13033,139.0
13035,117.7
13036,98.2
13039,133.9
13041,119.2
13043,152.6
13044,154.8
13046,116.2
13047,94.9
13049,87.9
13050,171.6
13051,92.6
13056,104.3
13057,112.1
13062,67.4
13064,128.0
13069,150.1
13070,90.7
13071,127.5
13073,113.0
13074,82.8
13076,165.3
13078,152.2
13082,152.2
13085,136.5
13086,77.6
13087,147.1
13088,126.6
13089,165.0
13094,130.2
13097,101.6
13099,85.4
13101,169.7
13102,115.8
13103,142.1
13105,165.6
13106,144.7
13107,169.5
13110,90.4
13112,75.1
13113,136.1
13114,92.3
13117,124.6
13120,117.5
13123,171.4
13124,62.2
13126,99.0
13129,93.2
13131,100.9
13133,147.2
13134,90.4
13135,171.4
13136,87.9
13137,91.9
13140,105.2
13142,136.1
13147,115.6
13149,80.2
13152,118.2
13155,162.5
13156,101.4
13158,128.0
13161,67.4
13162,111.7
13165,146.1
13168,145.1
13174,87.9
13176,109.1
13179,108.4
13182,130.3
13184,160.4
13187,82.8
13192,152.2
13193,105.4
13194,155.4
13196,149.4
13198,98.2
13199,77.6
13200,101.7
13201,143.9
13204,137.2
13205,112.5
13206,161.3
13210,122.9
13211,64.8
13212,105.1
13214,127.8
13218,111.7
13219,135.2
13221,158.9
13223,64.8
13224,121.2
13227,105.0
13231,144.8
13232,99.1
13233,94.2
13234,119.8
13236,87.9
13237,108.3
13241,105.8
13243,148.6
13245,118.7
13247,114.0
13249,85.4
13252,168.3
13254,111.3
13255,152.0
13256,170.1
13258,155.5
13259,157.6
13260,141.3
13261,69.9
13264,137.9
13265,116.6
13267,96.4
13268,144.6
13269,165.7
13270,118.2
13273,119.3
13274,90.5
13278,152.0
13279,108.0
13280,127.2
13281,92.6
13282,152.7
13286,82.8
13291,101.1
13294,105.3
13297,159.3
13298,75.1
13306,124.1
13307,106.4
13308,126.3
13310,121.6
13312,64.8
13313,171.8
13315,101.5
13317,97.1
13319,116.0
13321,129.0
13322,169.0
13324,69.9
13325,149.0
13326,152.5
13329,151.3
13331,152.4
13336,90.5
13338,111.1
13339,98.3
13344,151.8
13345,92.4
13346,111.1
13347,99.7
13348,77.6
13354,170.0
13355,143.7
13357,122.2
13360,91.2
13361,59.6
13366,141.0
13369,94.9
13371,136.8
13373,96.9
13374,87.9
13377,158.2
13382,109.7
13383,154.8
13384,109.3
13385,140.7
13386,85.4
13387,117.6
13388,96.0
13390,151.1
13393,167.2
13396,115.5
13397,92.7
13398,117.1
13399,75.1
13400,140.5
13401,138.4
13402,101.7
13405,157.3
13408,165.0
13409,147.7
13411,69.9
13412,124.3
13413,108.7
13417,155.9
13418,167.7
13421,168.1
13422,107.7
13423,62.2
13426,154.1
13428,157.9
13435,80.2
13437,133.5
13439,135.6
13441,168.5
13442,115.3
13449,75.1
13453,118.2
13454,166.7
13456,143.9
13461,69.9
13462,143.3
13463,94.7
13464,120.3
13466,156.9
13467,122.9
13468,120.0
13470,160.4
13473,95.6
13475,101.9
13480,104.4
13481,149.2
13482,98.8
13483,110.9
13484,128.7
13485,152.9
13486,85.4
13491,126.2
13492,128.3
13497,139.7
13498,72.5
13500,95.2
13502,148.9
13503,114.0
13509,92.0
13510,113.4
13511,72.5
13512,111.2
13516,163.4
13517,132.7
13519,148.0
13520,143.0
13522,110.4
13523,67.4
13527,162.4
13532,120.5
13533,165.1
13536,85.4
13540,96.9
13542,93.1
13544,143.6
13546,102.9
13547,170.5
13548,80.2
13549,129.7
13551,99.7
13552,142.7
13555,116.3
13558,123.5
13560,64.8
13561,146.0
13562,99.4
13564,145.2
13574,93.1
13578,128.4
13581,100.4
13582,164.1
13583,168.7
13585,156.3
13586,87.9
13589,164.6
13590,107.5
13592,103.3
13596,99.1
13597,125.0
13598,75.1
13602,146.2
13603,96.8
13611,80.2
13613,94.4
13614,131.3
13615,108.7
13616,140.7
13618,102.9
13619,138.7
13621,110.2
13622,136.5
13623,69.9
13625,96.2
13626,116.4
13627,107.9
13629,127.8
13630,153.8
13633,99.3
13634,92.2
13635,80.2
13638,101.2
13639,132.1
13640,127.0
13641,90.1
13642,142.8
13643,118.4
13648,77.6
13649,138.8
13655,140.7
13656,149.8
13657,120.6
13658,106.1
13659,110.9
13661,72.5
13663,116.1
13667,90.8
13668,171.0
13669,90.5
13671,153.6
13673,98.2
13674,120.9
13675,156.2
13679,110.0
13682,130.5
13684,140.3
13685,93.1
13686,162.7
13690,151.1
13692,115.4
13693,118.4
13697,94.5
13698,75.1
13699,138.7
13700,131.2
13704,127.1
13706,122.5
13707,109.5
13710,153.9
13711,77.6
13712,112.3
13717,139.6
13718,148.9
13723,72.5
13734,106.9
13735,85.4
13736,123.5
13738,146.6
13739,145.7
13741,114.4
13742,95.6
13743,148.3
13744,102.0
13745,154.7
13747,134.4
13748,72.5
13749,97.9
13750,96.2
13759,110.0
13760,72.5
13761,135.1
13763,100.8
13764,104.1
13765,94.0
13766,151.5
13771,98.2
13772,110.1
13773,98.2
13774,120.8
13781,98.2
13783,115.5
13784,102.2
13785,98.1
13786,85.4
13788,133.9
13789,134.8
13790,119.7
13791,109.4
13792,92.6
13798,72.5
13800,135.1
13801,106.2
13803,150.0
13804,162.3
13805,145.1
13807,132.9
13809,149.3
13810,82.8
13811,142.2
13813,108.2
13814,159.0
13816,109.5
13818,136.4
13819,144.7
13822,80.2
13823,97.0
13825,166.9
13829,129.3
13830,110.1
13831,121.2
13835,82.8
13836,91.0
13837,151.4
13838,138.6
13840,115.1
13841,129.9
13844,129.5
13846,93.8
13847,91.9
13848,67.4
13849,100.6
13851,111.1
13853,148.8
13854,154.0
13855,169.3
13859,164.9
13860,62.2
13861,127.5
13866,125.6
13868,112.1
13869,119.9
13871,155.1
13873,87.9
13876,155.1
13878,145.0
13881,158.7
13884,116.3
13885,87.9
13886,104.8
13888,127.6
13889,133.4
13893,96.6
13896,99.0
13897,75.1
13900,154.0
13901,151.8
13902,141.0
13903,155.5
13906,114.9
13908,111.3
13909,119.8
13911,87.9
13915,139.7
13918,101.6
13921,122.4
13922,117.8
13923,77.6
13925,157.5
13926,139.2
13929,127.2
13933,130.9
13935,77.6
13937,109.4
13938,126.6
13939,146.1
13940,99.5
13942,151.9
13944,131.1
13945,124.1
13947,69.9
13949,101.6
13951,124.9
13952,137.9
13954,122.9
13956,101.0
13957,122.9
13959,158.0
13960,62.2
13963,165.7
13964,126.1
13965,107.9
13966,92.1
13970,119.8
13973,93.1
13976,107.0
13977,98.1
13979,134.6
13980,159.9
13983,129.2
13985,80.2
13987,113.5
13990,171.4
13991,103.6
13993,101.5
13994,146.4
13995,166.1
13998,64.8
13999,152.4
14001,113.7
14004,121.2
14010,82.8
14012,95.6
14013,114.4
14014,122.1
14015,121.3
14019,130.5
14022,82.8
14024,106.8
14025,107.9
14031,114.3
14032,145.8
14034,80.2
14036,95.9
14039,127.5
14040,153.9
14042,146.1
14044,104.3
14045,145.0
14047,120.7
14048,67.4
14049,114.2
14050,108.6
14052,139.3
14055,171.2
14060,57.1
14061,150.4
14062,107.0
14063,165.7
14064,111.5
14067,92.2
14068,110.5
14069,115.7
14072,87.9
14075,134.2
14076,136.4
14077,138.6
14079,164.0
14081,166.0
14085,87.9
14086,107.7
14087,135.2
14089,153.9
14092,109.0
14095,92.3
14097,77.6
14101,134.4
14102,129.9
14103,139.5
14107,142.5
14108,122.9
14110,95.6
14114,108.6
14117,159.1
14118,152.8
14122,137.3
14123,87.9
14127,104.9
14129,168.1
14132,153.9
14134,148.0
14135,77.6
14136,167.7
14137,99.3
14146,142.8
14147,69.9
14148,129.6
14149,94.7
14150,117.0
14153,108.3
14155,95.3
14156,164.4
14159,67.4
14165,94.1
14166,150.9
14170,146.2
14171,137.5
14172,96.7
14173,93.1
14178,127.0
14180,100.5
14181,102.9
14182,129.3
14184,132.5
14185,80.2
14186,91.7
14190,134.0
14191,126.6
14193,137.8
14194,171.1
14197,64.8
14198,122.8
14200,94.4
14201,157.8
14205,117.4
14206,126.8
14207,140.3
14208,154.8
14210,85.4
14214,149.6
14217,143.8
14218,158.3
14221,129.1
14222,82.8
14227,113.4
14228,140.4
14229,141.2
14231,94.7
14234,75.1
14237,103.2
14238,161.2
14239,98.7
14241,100.2
14242,112.9
14243,160.0
14244,154.8
14245,171.0
14246,119.2
14247,69.9
14249,150.5
14250,135.3
14252,133.8
14257,98.4
14258,167.1
14260,64.8
14261,169.4
14263,125.5
14265,130.4
14266,141.8
14267,146.1
14268,168.5
14269,147.9
14272,87.9
14274,123.3
14276,109.9
14277,171.4
14278,106.4
14279,97.7
14280,138.9
14282,170.4
14283,120.1
14284,77.6
14285,118.9
14286,157.1
14287,151.1
14288,151.8
14289,98.5
14295,138.9
14297,75.1
14299,139.9
14302,107.9
14303,164.9
14304,131.6
14305,97.3
14306,158.8
14308,107.3
14310,100.8
14311,159.9
14313,148.3
14314,143.2
14315,162.7
14316,94.4
14317,133.5
14318,167.7
14319,147.2
14320,99.3
14321,107.0
14322,157.5
14323,93.1
14326,131.0
14327,124.9
14331,130.5
14333,105.5
14336,80.2
14338,146.0
14340,104.1
14342,121.9
14345,155.8
14346,146.7
14348,85.4
14350,124.6
14351,99.9
14352,158.7
14353,96.3
14354,140.3
14359,133.2
14360,80.2
14362,112.0
14363,93.0
14364,159.5
14366,115.5
14367,139.4
14369,94.6
14373,87.9
14374,129.1
14377,103.4
14380,119.3
14383,114.3
14385,132.3
14386,75.1
14387,117.3
14389,108.4
14390,147.0
14391,164.1
14392,157.3
14393,109.2
14396,139.0
14397,138.1
14398,67.4
14402,152.2
14404,100.1
14406,129.5
14407,112.8
14410,95.6
14411,150.1
14420,139.5
14422,102.6
14423,90.5
14426,164.7
14429,153.7
14430,163.1
14431,98.7
14435,156.3
14436,75.1
14441,95.7
14445,139.2
14448,90.5
14451,150.7
14454,116.5
14459,162.2
14460,80.2
14462,95.5
14463,150.6
14464,170.5
14465,167.8
14466,110.8
14473,80.2
14476,130.5
14477,124.5
14478,104.7
14482,166.7
14483,157.1
14484,171.3
14485,67.4
14488,147.9
14489,123.3
14490,93.1
14492,147.1
14494,122.4
14496,136.9
14497,59.6
14498,111.4
14499,111.2
14502,157.6
14504,149.3
14505,135.5
14506,116.1
14508,97.7
14511,93.1
14515,121.9
14519,153.6
14521,139.5
14522,90.7
14523,95.6
14525,153.3
14527,128.6
14529,122.8
14530,144.2
14533,117.7
14535,80.2
14538,168.6
14542,93.8
14544,138.1
14547,95.6
14550,147.1
14553,115.1
14554,162.3
14555,137.5
14556,128.1
14560,87.9
14561,141.6
14563,165.0
14564,92.6
14565,170.8
14567,140.1
14568,161.0
14573,80.2
14574,147.6
14575,127.8
14577,142.2
14578,163.1
14579,116.9
14580,167.5
14585,72.5
14587,165.9
14593,124.3
14594,131.7
14595,95.5
14596,106.9
14597,169.0
14598,72.5
14604,128.6
14606,166.6
14608,127.1
14610,98.2
14611,129.2
14612,101.2
14614,129.3
14618,108.6
14620,114.1
14622,85.4
14623,90.9
14626,165.4
14627,115.1
14629,143.3
14631,143.0
14632,150.3
14635,167.5
14636,69.9
14638,97.7
14640,140.6
14641,162.1
14642,158.8
14643,108.8
14644,156.4
14646,123.8
14647,164.8
14648,90.5
14652,105.2
14653,109.2
14656,115.6
14658,163.9
14660,82.8
14662,97.7
14666,134.6
14668,143.2
14671,115.4
14672,82.8
14673,112.0
14675,114.3
14677,169.7
14685,77.6
14688,161.6
14689,112.2
14691,144.9
14694,144.8
14697,67.4
14702,102.9
14706,112.9
14708,156.3
14710,90.5
14711,151.8
14712,90.6
14715,139.3
14718,126.0
14719,118.8
14723,80.2
14725,163.3
14726,97.5
14727,144.8
14729,132.2
14730,143.9
14732,170.3
14735,69.9
14736,124.2
14738,112.5
14739,140.2
14742,137.2
14744,98.5
14745,130.6
14747,98.2
14748,105.8
14749,134.2
14753,147.9
14754,163.6
14755,128.3
14756,116.2
14758,158.1
14759,90.5
14761,101.0
14762,158.8
14767,171.2
14770,146.1
14773,82.8
14774,141.1
14778,131.7
14779,157.6
14782,121.6
14784,96.2
14785,75.1
14788,163.9
14790,154.0
14791,92.2
14792,106.4
14793,121.4
14796,140.6
14797,67.4
14799,104.9
14801,137.4
14802,171.2
14809,92.9
14810,93.1
14812,168.5
14813,109.8
14820,121.3
14822,87.9
14823,121.3
14824,137.8
14825,166.8
14828,124.7
14829,104.2
14830,103.8
14831,118.5
14834,109.0
14835,69.9
14836,121.5
14837,136.6
14838,97.6
14840,95.4
14843,157.5
14845,154.2
14847,105.7
14848,98.2
14849,145.5
14850,158.5
14851,155.0
14854,154.2
14855,115.1
14857,113.0
14859,141.7
14860,85.4
14863,102.2
14864,90.2
14866,124.8
14871,104.6
14872,75.1
14873,151.1
14874,112.2
14879,105.7
14884,72.5
14885,156.1
14888,145.3
14889,134.2
14891,108.9
14895,109.5
14897,69.9
14900,107.1
14901,120.4
14905,167.0
14908,150.5
14910,90.5
14918,121.3
14922,80.2
14927,164.0
14928,110.9
14929,93.1
14935,64.8
14936,125.6
14939,156.3
14940,156.6
14942,104.4
14947,93.1
14950,110.4
14952,136.1
14954,121.5
14957,140.9
14959,90.5
14961,101.0
14963,117.0
14964,91.7
14968,112.1
14969,117.9
14970,158.3
14972,80.2
14974,137.4
14977,118.5
14979,169.9
14982,159.9
14985,77.6
14986,142.0
14987,166.7
14988,156.2
14992,171.1
14994,139.9
14997,69.9
14998,162.1
14999,165.5
15000,159.2
15004,161.0
15008,110.4
15009,87.9
15010,125.0
15013,164.2
15014,161.6
15017,124.6
15018,116.8
15019,116.5
15020,97.9
15022,75.1
15024,160.7
15027,123.2
15028,93.7
15030,127.5
15032,155.8
15034,132.9
15035,64.8
15037,90.4
15039,152.5
15041,155.4
15042,117.9
15044,101.2
15045,131.7
15047,98.2
15051,127.3
15055,166.6
15056,170.8
15057,150.6
15058,140.1
15059,85.4
15060,123.0
15066,120.9
15067,169.0
15068,125.2
15070,138.3
15071,140.1
15072,69.9
15074,111.2
15077,91.3
15080,147.5
15082,127.5
15083,160.0
15084,75.1
15086,142.7
15091,161.5
15092,161.1
15094,125.5
15096,67.4
15097,94.2
15098,159.4
15099,140.9
15100,164.5
15102,96.6
15103,169.0
15104,107.6
15105,132.9
15106,155.3
15107,168.0
15108,166.5
15110,82.8
15111,126.7
15114,117.6
15119,129.4
15122,75.1
15123,119.4
15125,125.4
15126,116.7
15129,143.5
15133,96.3
15134,62.2
15138,149.7
15140,124.6
15141,91.6
15142,97.9
15143,130.3
15146,114.0
15147,93.1
15151,136.2
15152,149.3
15154,104.8
15158,113.3
15159,87.9
15160,107.0
15161,169.2
15168,140.1
15170,142.5
15171,125.7
15172,72.5
15173,132.4
15177,91.5
15178,170.1
15180,166.0
15181,116.6
15182,164.6
15184,80.2
15185,142.9
15186,154.1
15187,123.5
15188,148.0
15189,154.9
15193,108.8
15194,118.1
15196,93.7
15197,77.6
15200,157.6
15202,151.4
15203,111.7
15204,104.6
15208,136.0
15209,82.8
15211,95.9
15217,158.2
15219,134.0
15221,72.5
15222,103.8
15224,117.2
15229,126.5
15230,114.7
15232,92.7
15235,64.8
15237,100.7
15240,94.6
15241,160.7
15246,160.5
15247,98.2
15249,134.2
15250,161.4
15251,171.9
15256,125.1
15259,90.5
15264,104.1
15267,120.9
15270,158.1
15271,72.5
15272,132.2
15277,154.7
15278,141.6
15279,152.4
15280,110.4
15282,143.0
15283,137.0
15284,82.8
15287,152.2
15289,123.4
15291,135.9
15292,94.2
15294,121.6
15296,77.6
15297,116.5
15298,118.8
15300,91.6
15303,158.9
15306,91.8
15307,96.5
15309,82.8
15317,152.7
15319,126.0
15320,137.4
15321,139.3
15322,69.9
15323,96.9
15329,156.1
15330,143.2
15331,90.1
15332,114.1
15334,67.4
15335,165.5
15337,160.5
15339,102.1
15340,161.2
15342,148.1
15343,127.7
15344,133.0
15345,152.2
15346,95.6
15347,94.0
15348,107.7
15349,116.9
15352,102.0
15355,167.5
15357,151.3
15358,82.8
15361,107.7
15363,114.9
15370,113.1
15371,141.6
15372,69.9
15374,111.2
15375,131.7
15376,139.0
15379,151.3
15380,148.9
15382,109.1
15384,85.4
15389,134.1
15394,145.3
15395,102.3
15396,77.6
15397,108.2
15398,126.1
15400,124.6
15407,129.1
15408,159.1
15409,85.4
15410,164.0
15411,126.8
15414,108.0
15417,100.2
15418,126.6
15419,113.0
15421,75.1
15423,119.3
15424,127.8
15425,125.1
15431,145.4
15434,64.8
15441,163.0
15442,121.8
15443,167.3
15447,95.6
15450,126.4
15451,115.7
15453,93.4
15455,140.4
15456,164.6
15458,165.0
15459,90.5
15460,139.6
15461,156.7
15462,111.7
15471,75.1
15474,130.7
15477,153.4
15478,120.7
15480,112.4
15483,90.5
15484,113.5
15488,109.6
15490,113.4
15492,131.2
15496,80.2
15497,117.4
15501,138.2
15502,159.6
15506,126.6
15507,127.7
15509,82.8
15510,110.8
15511,157.7
15512,92.3
15514,151.8
15519,109.7
15520,121.9
15521,80.2
15523,124.4
15526,129.0
15528,92.1
15534,72.5
15537,161.5
15538,91.8
15539,161.1
15542,124.5
15543,119.1
15546,98.2
15547,115.3
15549,126.5
15551,106.4
15552,97.2
15553,116.0
15554,128.6
15558,87.9
15564,107.0
15565,153.7
15568,94.9
15569,138.2
15570,154.7
15571,67.4
15572,142.8
15573,93.8
15574,159.8
15575,150.6
15576,155.3
15578,120.6
15582,119.3
15583,131.5
15584,90.5
15585,109.9
15589,113.8
15595,111.6
15596,90.5
15597,110.0
15600,170.6
15602,155.6
15603,143.7
15605,124.7
15607,110.2
15608,80.2
15610,168.2
15611,164.9
15612,160.9
15614,100.7
15616,123.8
15618,170.7
15619,141.8
15620,165.1
15621,72.5
15624,145.0
15627,91.1
15628,168.6
15632,111.3
15634,72.5
15638,92.4
15641,172.0
15642,150.4
15644,95.8
15646,100.8
15650,150.3
15651,156.8
15652,138.0
15653,151.8
15654,119.7
15655,124.6
15656,96.5
15660,85.4
15662,146.5
15663,139.0
15665,136.6
15666,150.3
15667,158.4
15668,171.5
15672,77.6
15673,97.1
15675,98.3
15678,162.7
15679,131.2
15680,151.4
15681,126.7
15682,166.2
15684,105.9
15685,122.9
15686,96.3
15688,149.9
15689,128.6
15690,124.9
15691,97.6
15692,142.7
15694,143.1
15695,131.9
15696,144.9
15697,87.9
15700,113.0
15701,127.8
15703,137.9
15704,122.8
15711,69.9
15714,143.4
15716,154.1
15717,121.4
15718,162.6
15720,148.1
15722,91.3
15723,90.5
15724,120.6
15725,100.9
15727,123.1
15731,170.2
15733,138.1
15735,87.9
15736,91.4
15738,142.6
15741,95.6
15742,148.9
15744,147.5
15748,80.2
15749,146.7
15755,90.3
15756,104.8
15757,147.8
15760,69.9
15763,130.7
15764,164.5
15772,160.1
15773,62.2
15780,115.9
15781,158.7
15782,145.8
15783,141.1
15785,90.5
15786,124.6
15789,165.0
15790,95.5
15791,94.5
15792,95.5
15793,161.8
15796,133.6
15798,80.2
15800,120.8
15802,115.3
15803,115.2
15804,161.1
15805,107.5
15806,138.4
15807,97.4
15810,72.5
15811,127.2
15813,150.7
15815,117.8
15817,111.4
15821,114.5
15822,95.6
15823,114.8
15826,100.5
15829,105.4
15834,139.7
15836,82.8
15838,113.1
15839,91.4
15840,163.6
15841,161.6
15844,103.7
15845,149.2
15847,154.2
15848,80.2
15851,129.4
15856,108.5
15858,119.3
15859,96.7
15860,77.6
15862,165.1
15863,145.9
15864,151.9
15866,123.3
15873,69.9
15874,115.4
15876,161.1
15877,130.7
15879,114.8
15883,106.7
15885,93.1
15886,169.5
15890,165.3
15891,96.3
15892,145.3
15893,90.7
15896,119.1
15897,85.4
15898,120.7
15900,111.9
15908,167.5
15910,69.9
15911,124.3
15914,116.1
15915,156.8
15918,118.6
15921,168.0
15923,95.6
15924,166.7
15926,153.6
15927,119.9
15928,103.8
15929,99.8
15933,135.1
15935,87.9
15937,116.9
15939,161.9
15940,156.2
15941,94.7
15947,80.2
15948,137.3
15957,114.9
15958,162.7
15960,80.2
15963,155.1
15970,96.2
15971,104.0
15973,69.9
15974,171.8
15977,170.3
15981,117.1
15982,156.2
15985,87.9
15992,158.8
15994,169.8
15996,99.1
15997,75.1
15998,127.8
16001,152.1
16002,104.6
16003,134.1
16009,167.3
16010,64.8
16018,98.0
16022,95.6
16024,108.1
16025,133.7
16028,168.3
16031,97.5
16033,163.1
16035,90.5
16036,152.8
16037,150.1
16039,171.4
16044,168.8
16045,95.3
16047,111.2
16048,75.1
16050,121.6
16052,111.2
16055,147.7
16057,170.5
16059,104.2
16060,72.5
16064,165.0
16065,98.4
16066,139.9
16067,120.3
16068,128.0
16072,72.5
16073,159.0
16074,170.2
16082,159.5
16083,158.9
16084,90.5
16085,150.3
16087,98.3
16088,95.2
16089,115.8
16092,128.7
16095,105.8
16096,97.4
16097,82.8
16100,97.1
16102,149.3
16107,97.2
16108,110.5
16109,117.3
16110,75.1
16111,142.6
16112,119.7
16117,159.6
16122,100.8
16124,168.1
16127,116.3
16129,93.2
16136,85.4
16138,94.8
16139,115.2
16146,90.8
16148,67.4
16149,126.2
16152,97.2
16153,148.4
16155,163.3
16156,140.6
16157,162.8
16158,123.4
16160,87.9
16161,140.3
16163,114.9
16165,153.0
16166,116.2
16169,123.4
16170,158.8
16172,125.4
16174,95.6
16175,151.4
16176,115.0
16179,171.0
16181,114.9
16182,154.2
16183,150.8
16184,105.1
16186,87.9
16190,138.5
16195,101.6
16198,75.1
16200,167.0
16204,160.3
16205,139.0
16206,118.0
16207,94.5
16208,115.2
16210,67.4
16211,96.7
16212,140.7
16213,150.2
16214,98.4
16215,124.4
16217,98.6
16220,147.0
16221,121.4
16223,93.1
16226,142.5
16227,146.6
16231,97.6
16233,94.8
16235,151.8
16236,87.9
16239,158.9
16241,147.6
16242,133.2
16244,100.9
16246,144.5
16247,101.0
16248,75.1
16249,150.7
16251,123.2
16258,101.6
16260,157.6
16261,93.1
16263,165.9
16264,102.5
16269,96.9
16271,156.5
16272,119.2
16273,82.8
16274,142.3
16278,104.0
16279,154.1
16285,75.1
16287,158.5
16292,136.6
16293,121.3
16294,102.0
16295,133.4
16297,67.4
16299,141.8
16301,130.7
16303,155.6
16305,148.1
16306,151.2
16309,90.9
16311,67.4
16313,136.6
16315,101.4
16317,155.6
16318,141.9
16319,166.8
16322,142.0
16323,93.1
16324,130.4
16325,152.3
16328,135.2
16329,127.4
16332,147.7
16333,102.9
16335,85.4
16339,92.5
16343,168.7
16345,144.2
16348,64.8
16349,164.9
16350,111.9
16351,117.8
16354,130.5
16356,100.6
16359,156.0
16360,90.5
16362,135.6
16364,167.0
16365,101.9
16368,118.7
16370,114.2
16373,82.8
16375,105.3
16376,148.8
16377,93.7
16381,145.5
16384,132.0
16385,165.9
16386,80.2
16387,142.7
16388,147.9
16389,102.1
16390,141.8
16391,132.3
16393,91.3
16396,121.2
16398,80.2
16400,113.6
16401,92.4
16402,154.9
16403,158.2
16407,111.5
16409,124.3
16410,69.9
16412,119.4
16413,114.6
16420,129.1
16421,127.0
16422,93.1
16423,156.0
16425,146.8
16430,139.8
16432,118.0
16433,148.9
16436,80.2
16438,91.9
16440,161.4
16441,142.0
16442,169.7
16443,137.9
16445,117.1
16446,122.2
16447,146.4
16448,67.4
16454,106.7
16456,97.7
16459,121.9
16460,95.6
16461,141.4
16462,119.1
16464,156.0
16465,108.1
16467,135.8
16468,133.5
16472,166.0
16473,87.9
16477,126.3
16478,162.2
16479,118.5
16482,147.2
16483,164.7
16485,75.1
16486,140.3
16487,158.0
16490,96.1
16491,121.9
16495,168.6
16497,72.5
16498,124.2
16501,100.5
16502,166.1
16503,159.2
16508,91.9
16510,64.8
16511,97.2
16513,98.0
16516,149.6
16518,105.9
16520,121.3
16523,87.9
16530,165.6
16535,82.8
16536,129.5
16537,138.3
16539,144.6
16541,126.7
16543,162.3
16545,151.8
16546,140.5
16547,67.4
16550,107.6
16560,93.1
16561,91.4
16564,117.0
16567,152.3
16569,149.9
16570,160.3
16572,132.7
16573,82.8
16574,155.4
16576,152.8
16578,149.8
16579,135.9
16580,168.0
16582,136.7
16583,115.3
16585,69.9
16586,138.3
16587,151.8
16589,111.3
16590,156.3
16594,149.9
16596,168.5
16597,109.1
16598,72.5
16599,126.1
16601,136.0
16602,138.3
16606,162.4
16607,168.5
16608,123.5
16609,107.6
16610,77.6
16612,94.6
16613,136.3
16614,149.8
16622,90.5
16623,100.3
16627,149.9
16628,130.5
16630,156.2
16633,111.0
16634,131.9
16635,77.6
16636,132.4
16638,156.8
16639,133.4
16642,153.2
16643,158.4
16648,62.2
16650,117.2
16651,146.5
16656,102.2
16659,163.1
16660,93.1
16661,120.1
16664,144.4
16665,144.3
16666,144.4
16667,161.6
16668,103.0
16671,164.3
16672,90.5
16675,148.8
16677,163.9
16678,152.3
16679,99.1
16680,107.9
16682,110.1
16684,107.2
16685,77.6
16690,125.8
16691,131.8
16694,118.1
16696,133.9
16697,77.6
16700,114.4
16701,167.3
16710,69.9
16713,124.6
16717,164.3
16721,142.4
16722,80.2
16723,131.2
16724,140.1
16726,122.7
16730,116.6
16731,135.2
16732,129.3
16734,112.0
16735,72.5
16739,113.0
16743,116.7
16744,137.1
16747,72.5
16748,117.4
16749,96.5
16750,119.3
16751,106.5
16753,166.9
16759,98.2
16763,116.4
16764,118.3
16768,154.6
16772,117.0
16773,85.4
16775,141.5
16778,165.7
16779,147.4
16781,130.1
16784,134.1
16785,64.8
16787,127.5
16790,112.7
16793,169.3
16797,75.1
16798,95.3
16799,142.2
16801,169.6
16804,121.6
16807,162.8
16809,69.9
16813,166.1
16814,125.1
16817,116.5
16818,99.9
16819,151.4
16820,99.7
16821,140.6
16822,82.8
16823,130.4
16824,111.1
16825,108.4
16829,140.3
16833,119.2
16834,116.1
16835,77.6
16841,152.9
16842,153.8
16843,125.7
16844,162.7
16845,140.1
16847,64.8
16848,126.1
16849,139.1
16850,109.5
16851,149.3
16854,164.9
16855,94.1
16860,90.5
16867,168.3
16868,118.8
16871,131.4
16872,82.8
16878,105.1
16879,158.5
16880,122.5
16882,105.7
16884,69.9
16887,93.1
16889,152.2
16891,116.8
16897,85.4
16901,129.0
16902,142.4
16903,104.1
16905,113.0
16906,100.4
16908,113.0
16910,77.6
16912,134.4
16913,151.1
16915,115.0
16916,144.4
16918,103.7
16919,121.3
16922,80.2
16923,135.4
16925,136.6
16926,132.6
16927,110.8
16931,143.7
16932,94.0
16933,96.8
16934,69.9
16936,142.0
16938,131.5
16940,92.8
16941,90.7
16944,106.7
16947,64.8
16949,164.6
16955,135.4
16957,95.9
16958,160.1
16959,95.6
16960,161.4
16961,126.0
16962,109.8
16965,155.2
16969,133.2
16972,90.5
16973,122.8
16975,151.2
16978,98.6
16982,118.4
16983,111.4
16984,124.2
16985,72.5
16987,91.3
16991,110.1
16996,102.6
16997,85.4
17004,122.2
17006,140.4
17009,77.6
17011,125.9
17014,160.2
17015,166.4
17017,157.6
17019,123.0
17021,80.2
17022,147.4
17023,130.7
17024,93.9
17035,67.4
17036,117.3
17039,106.9
17041,165.9
17043,159.9
17044,114.5
17045,137.0
17047,67.4
17048,98.8
17052,146.7
17053,148.3
17057,157.3
17058,118.6
17059,93.1
17060,126.4
17063,141.4
17064,146.0
17066,155.8
17067,119.9
17072,80.2
17074,93.5
17075,170.5
17079,162.1
17082,167.8
17084,64.8
17085,169.5
17086,149.3
17087,159.7
17089,143.2
17090,143.8
17091,135.7
17092,160.6
17093,145.2
17096,82.8
17097,127.2
17102,161.7
17103,135.0
17104,97.3
17105,103.0
17106,105.0
17110,82.8
17111,111.3
17117,167.3
17120,120.4
17122,80.2
17124,129.2
17127,132.0
17131,113.7
17132,122.4
17134,69.9
17136,126.6
17137,140.0
17138,158.2
17139,158.2
17140,158.1
17141,96.7
17142,154.1
17143,136.1
17145,136.7
17146,59.6
17147,98.2
17149,131.4
17151,127.4
17152,120.7
17156,95.6
17158,137.0
17159,90.5
17162,146.4
17163,114.5
17167,155.1
17168,139.5
17170,103.5
17172,82.8
17176,106.9
17180,98.2
17184,69.9
17188,165.2
17192,140.8
17193,104.6
17195,152.3
17197,93.1
17200,152.3
17201,132.4
17206,142.8
17209,85.4
17212,144.4
17213,129.0
17214,126.1
17215,125.6
17216,121.1
17217,116.2
17218,163.6
17221,75.1
17224,129.5
17225,119.7
17227,114.8
17229,140.2
17230,143.2
17233,148.1
17234,67.4
17238,142.4
17239,115.1
17241,170.7
17242,125.4
17245,128.6
17247,64.8
17250,130.4
17251,117.6
17252,123.7
17254,136.2
17256,168.0
17259,93.1
17260,149.5
17265,158.1
17267,111.8
17268,140.2
17270,163.6
17271,85.4
17272,129.9
17273,167.6
17274,146.9
17276,114.5
17277,99.2
17282,107.3
17284,67.4
17286,138.7
17287,128.3
17288,171.5
17290,144.4
17292,99.0
17293,167.9
17296,90.5
17297,142.8
17301,127.9
17306,160.4
17309,87.9
17314,152.9
17315,140.4
17317,111.6
17318,144.4
17320,157.1
17321,80.2
17325,144.1
17327,146.9
17328,129.7
17329,104.2
17334,72.5
17335,167.3
17337,128.4
17340,131.0
17346,67.4
17347,122.9
17349,98.5
17351,118.1
17353,143.1
17355,150.0
17357,130.0
17358,87.9
17359,97.8
17360,133.8
17363,161.8
17365,120.7
17366,107.5
17368,144.5
17369,102.4
17372,77.6
17374,160.6
17375,134.0
17377,169.3
17379,118.7
17381,91.4
17383,153.6
17384,69.9
17385,151.5
17386,154.4
17388,158.6
17389,129.9
17390,139.0
17393,158.3
17396,98.2
17397,119.7
17401,131.1
17402,143.6
17404,123.0
17406,102.7
17407,163.6
17408,133.5
17409,93.1
17410,164.5
17411,141.5
17414,99.6
17415,105.9
17418,103.7
17420,107.5
17421,80.2
17424,150.4
17426,154.5
17429,142.3
17434,72.5
17435,126.4
17443,114.6
17444,128.1
17445,110.6
17446,64.8
17449,156.2
17450,171.8
17452,126.5
17453,148.7
17456,110.9
17457,170.3
17459,87.9
17462,144.9
17463,130.1
17465,156.4
17469,157.3
17470,110.1
17471,75.1
17473,113.8
17474,135.6
17477,148.5
17480,136.9
17482,171.6
17483,69.9
17489,132.5
17490,107.8
17491,167.0
17492,120.6
17495,152.9
17496,100.8
17497,93.0
17501,127.8
17503,105.7
17505,157.6
17509,98.3
17510,87.9
17511,96.4
17512,118.5
17514,145.6
17519,144.0
17522,72.5
17525,93.2
17526,98.6
17527,151.5
17528,167.1
17532,127.7
17533,154.8
17534,85.4
17536,112.1
17537,92.7
17538,134.5
17539,147.5
17541,104.6
17542,133.4
17546,115.7
17547,85.4
17550,98.0
17553,164.1
17555,102.8
17557,151.4
17559,82.8
17563,119.9
17564,156.5
17566,109.4
17567,135.1
17569,154.9
17571,138.0
17572,69.9
17573,126.5
17574,145.5
17578,118.9
17581,106.2
17585,64.8
17588,125.1
17589,172.0
17590,120.2
17591,145.3
17592,119.2
17595,133.2
17596,123.4
17597,95.6
17598,130.1
17599,127.3
17602,100.9
17603,134.1
17609,87.9
17610,112.1
17611,97.0
17612,107.5
17613,155.7
17615,157.3
17618,151.8
17620,140.2
17622,75.1
17625,96.1
17626,105.5
17629,139.5
17630,164.7
17631,115.4
17632,130.4
17633,115.4
17634,140.4
17635,93.1
17640,125.4
17642,159.8
17645,165.7
17647,82.8
17650,115.7
17652,148.4
17653,149.6
17654,124.0
17659,77.6
17660,153.0
17662,162.5
17664,168.0
17669,112.0
17672,69.9
17674,169.0
17677,106.1
17681,152.9
17684,64.8
17685,169.8
17687,144.7
17689,144.5
17691,165.0
17693,145.2
17697,90.5
17699,108.7
17700,119.9
17701,141.6
17702,159.2
17703,136.0
17706,102.6
17708,157.6
17710,87.9
17711,132.1
17714,169.9
17717,118.1
17718,167.8
17721,144.9
17722,69.9
17725,109.5
17727,149.8
17728,156.4
17730,167.6
17731,148.0
17732,155.6
17733,101.6
17734,93.1
17742,131.5
17744,152.6
17746,90.5
17748,122.0
17749,167.0
17750,98.5
17753,156.4
17754,145.1
17758,168.5
17759,85.4
17764,155.3
17765,103.6
17768,111.6
17771,143.9
17772,75.1
17774,116.4
17775,103.0
17776,121.0
17777,165.7
17778,138.0
17779,154.8
17780,134.8
17782,156.1
17783,102.0
17784,67.4
17785,117.3
17790,140.7
17796,115.1
17797,90.5
17799,170.1
17800,152.2
17801,127.0
17803,111.7
17804,141.6
17805,121.0
17806,120.5
17808,107.6
17809,82.8
17810,120.7
17811,157.2
17812,113.0
17813,165.8
17814,99.0
17815,98.0
17816,153.3
17817,133.7
17818,159.7
17821,69.9
17825,164.2
17826,118.1
17827,107.5
17828,165.6
17829,105.4
17831,169.2
17832,146.3
17833,101.8
17834,106.9
17835,98.2
17838,157.7
17839,142.8
17841,98.2
17842,138.6
17845,126.5
17847,93.1
17852,168.0
17859,80.2
17860,125.2
17865,114.7
17866,98.2
17869,153.8
17870,112.9
17871,72.5
17875,130.7
17879,96.6
17880,121.3
17881,101.0
17884,67.4
17885,92.3
17886,96.1
17887,144.3
17889,110.0
17891,109.9
17892,111.9
17895,94.9
17896,98.0
17897,90.5
17898,105.1
17899,103.9
17900,107.0
17901,121.9
17902,106.0
17903,131.7
17904,162.0
17905,122.4
17908,113.9
17909,80.2
17910,164.5
17912,93.8
17913,137.0
17917,171.3
17918,144.2
17920,129.6
17922,72.5
17923,98.9
17925,134.6
17929,153.6
17930,120.9
17931,150.7
17934,100.8
17937,120.6
17939,129.6
17941,143.6
17942,146.5
17945,95.4
17947,90.5
17948,124.1
17949,168.6
17950,130.9
17952,93.4
17957,134.7
17959,75.1
17960,159.3
17966,122.4
17970,94.0
17971,114.6
17973,90.5
17981,131.1
17982,156.7
17985,82.8
17986,108.2
17988,108.5
17989,157.8
17990,103.3
17991,159.3
17992,143.7
17993,155.3
17997,82.8
17998,111.0
18000,125.2
18001,114.5
18002,138.3
18003,96.8
18004,93.0
18010,69.9
18014,148.9
18015,146.1
18016,108.9
18019,145.9
18021,121.7
18022,67.4
18024,164.8
18027,155.3
18031,136.7
18034,169.2
18035,103.4
18038,149.0
18039,151.6
18040,142.9
18041,108.8
18044,100.7
18045,156.8
18046,171.8
18048,147.8
18049,87.9
18050,138.9
18052,146.0
18053,100.1
18056,95.7
18057,160.8
18060,135.8
18061,72.5
18064,98.2
18067,122.6
18068,134.7
18072,137.5
18073,95.6
18074,128.1
18075,90.9
18079,112.7
18080,99.7
18082,117.2
18083,110.2
18085,85.4
18086,139.1
18090,142.3
18093,122.6
18095,101.4
18097,161.7
18099,75.1
18100,168.1
18103,122.9
18104,90.3
18107,104.3
18108,124.7
18110,150.3
18111,77.6
18112,152.1
18115,135.1
18117,131.8
18119,120.1
18120,112.7
18123,67.4
18124,90.9
18130,160.9
18131,166.1
18135,109.0
18136,90.5
18139,153.4
18140,120.2
18143,108.9
18146,131.3
18147,114.4
18148,75.1
18153,146.0
18154,141.0
18156,96.8
18160,62.2
18162,123.5
18163,126.8
18169,162.6
18170,116.8
18171,96.9
18172,115.5
18173,90.5
18180,165.3
18185,120.9
18186,90.5
18189,107.8
18191,146.6
18193,118.3
18194,92.1
18197,103.4
18198,77.6
18200,96.7
18203,93.9
18206,156.2
18207,97.3
18208,164.7
18209,110.1
18210,77.6
18213,97.1
18215,117.1
18217,132.1
18220,142.1
18222,147.9
18223,64.8
18224,136.4
18225,91.0
18226,108.1
18236,87.9
18239,156.3
18241,160.7
18242,127.2
18245,130.4
18248,80.2
18249,130.4
18251,160.3
18253,147.3
18254,105.8
18256,118.3
18258,131.0
18259,164.4
18260,75.1
18266,163.2
18267,114.9
18269,100.6
18270,164.6
18273,103.4
18276,147.3
18277,90.4
18279,97.6
18282,122.2
18283,134.4
18284,109.0
18286,87.9
18291,142.0
18295,135.5
18296,116.3
18297,109.6
18298,121.6
18299,69.9
18307,111.2
18308,152.0
18310,127.2
18312,85.4
18314,158.3
18315,127.5
18322,161.0
18324,82.8
18325,125.7
18326,95.0
18328,121.8
18329,108.4
18331,116.6
18332,168.2
18334,159.1
18336,77.6
18346,166.4
18347,155.5
18349,67.4
18350,127.3
18360,142.1
18361,64.8
18362,159.0
18363,159.1
18365,142.4
18371,128.7
18373,109.4
18374,90.5
18377,108.7
18383,104.5
18384,137.6
18386,82.8
18390,124.5
18391,158.0
18397,149.5
18398,117.3
18399,69.9
18407,151.9
18411,93.1
18414,131.0
18416,170.4
18420,171.6
18421,117.9
18422,153.9
18423,85.4
18425,114.8
18426,113.0
18432,133.7
18437,75.1
18445,93.5
18446,114.9
18449,64.8
18450,161.6
18451,126.0
18452,155.8
18456,159.2
18458,134.4
18459,171.2
18460,121.7
18461,64.8
18464,160.2
18466,159.3
18467,103.3
18468,94.2
18472,138.7
18473,95.6
18476,159.6
18478,163.1
18479,119.5
18485,137.5
18486,80.2
18488,163.0
18489,155.8
18491,123.9
18492,99.6
18497,98.8
18499,69.9
18500,129.7
18501,171.4
18510,128.8
18511,87.9
18518,115.1
18519,126.9
18521,113.8
18524,82.8
18525,150.9
18531,124.3
18533,127.8
18536,77.6
18543,132.0
18545,154.8
18547,102.4
18548,72.5
18550,121.8
18557,137.3
18559,114.3
18561,64.8
18562,117.7
18564,167.3
18566,145.8
18568,152.2
18569,137.6
18573,139.9
18574,85.4
18576,111.1
18579,146.2
18582,133.3
18584,118.6
18586,80.2
18588,124.2
18589,159.1
18590,121.1
18591,138.4
18592,139.0
18593,165.6
18597,168.2
18598,64.8
18599,148.9
18601,123.4
18605,107.9
18608,100.8
18611,93.1
18614,123.6
18615,134.9
18617,92.8
18621,152.9
18623,87.9
18626,126.3
18627,126.1
18631,127.4
18634,138.9
18635,128.4
18636,75.1
18639,152.1
18642,106.8
18643,136.3
18644,157.7
18646,101.8
18648,108.3
18649,72.5
18651,128.4
18655,105.1
18658,151.1
18661,64.8
18663,152.2
18665,126.4
18666,144.9
18667,97.0
18668,167.6
18669,152.3
18670,171.0
18672,100.1
18673,87.9
18675,135.4
18678,124.4
18683,105.4
18684,155.0
18685,85.4
18686,123.4
18688,169.3
18689,143.6
18690,103.8
18693,106.5
18695,109.0
18696,146.1
18699,75.1
18700,153.7
18701,94.3
18702,101.7
18704,140.6
18706,166.2
18707,110.7
18709,121.1
18711,98.2
18712,154.6
18721,156.8
18723,90.5
18726,162.9
18728,158.4
18729,168.1
18730,121.0
18732,170.8
18733,111.2
18736,75.1
18737,108.6
18741,165.2
18742,122.7
18743,118.2
18744,100.7
18748,80.2
18750,118.0
18754,134.1
18757,122.1
18760,77.6
18767,153.8
18769,139.1
18770,97.4
18772,131.5
18774,90.5
18776,109.9
18782,148.7
18785,94.0
18786,80.2
18789,154.4
18790,160.6
18791,111.7
18793,133.5
18795,157.9
18796,117.6
18798,67.4
18802,133.6
18805,153.9
18806,117.9
18808,98.7
18810,98.2
18811,168.9
18812,141.8
18813,152.7
18814,132.7
18815,90.8
18816,103.7
18818,118.7
18819,115.5
18822,101.7
18823,98.2
18824,155.8
18825,116.6
18827,169.9
18828,123.6
18829,171.5
18832,169.6
18833,119.9
18834,155.7
18836,82.8
18837,129.3
18841,160.5
18844,168.0
18845,135.2
18847,142.3
18848,82.8
18850,126.6
18851,122.5
18853,145.7
18855,93.4
18856,149.2
18857,168.0
18858,103.8
18861,72.5
18866,110.4
18867,96.2
18868,129.4
18873,85.4
18878,164.0
18880,97.6
18882,169.4
18884,164.1
18885,77.6
18887,135.9
18888,169.1
18892,165.6
18893,168.0
18898,77.6
18899,153.6
18903,144.3
18907,134.3
18908,128.7
18909,133.0
18911,105.9
18913,129.7
18914,165.4
18917,132.6
18919,106.6
18920,155.4
18923,96.3
18924,87.9
18925,155.7
18926,156.1
18927,136.5
18928,155.4
18932,104.2
18933,157.0
18935,128.9
18936,75.1
18937,144.7
18939,122.2
18942,114.6
18945,125.0
18946,109.2
18947,152.3
18948,134.4
18949,98.2
18950,131.5
18952,128.6
18953,91.6
18958,96.4
18962,98.2
18963,93.4
18965,133.2
18970,115.6
18971,146.2
18972,102.3
18974,90.5
18975,91.7
18976,145.9
18982,149.9
18983,143.8
18985,90.3
18987,80.2
18990,149.3
18991,130.1
18993,114.4
18997,167.7
18999,72.5
19000,95.5
19001,112.6
19003,130.9
19004,101.3
19007,160.9
19008,95.6
19011,100.8
19012,161.2
19015,112.1
19016,124.0
19017,161.7
19020,116.2
19024,87.9
19025,150.7
19026,154.0
19027,119.2
19028,123.3
19029,145.8
19030,126.7
19034,112.6
19036,157.7
19038,85.4
19039,108.8
19041,149.1
19042,94.5
19043,133.8
19045,152.9
19047,114.0
19050,113.7
19052,134.5
19054,167.0
19055,105.5
19056,91.1
19060,169.3
19061,131.6
19063,95.6
19070,130.5
19073,164.0
19076,77.6
19078,146.5
19080,107.7
19084,133.9
19086,142.8
19087,125.0
19088,103.4
19090,155.2
19093,160.9
19094,117.5
19096,170.2
19097,102.6
19099,101.0
19100,129.8
19102,100.8
19104,112.0
19105,144.4
19106,118.1
19108,147.7
19111,140.9
19112,127.7
19116,87.9
19117,97.8
19118,93.6
19119,98.8
19121,125.4
19122,140.0
19125,159.5
19128,105.9
19129,129.6
19130,100.8
19133,140.6
19136,118.7
19137,136.9
19138,93.8
19139,159.6
19140,102.7
19141,103.4
19145,149.4
19146,118.9
19147,109.5
19148,147.8
19151,169.5
19154,82.8
19155,126.9
19157,90.3
19160,112.0
19161,143.1
19165,106.2
19167,129.1
19168,100.8
19170,117.9
19171,103.2
19173,164.6
19176,118.2
19178,169.1
19179,141.8
19181,108.5
19182,120.5
19187,116.5
19194,93.1
19195,100.2
19199,125.2
19203,107.3
19204,139.6
19205,126.4
19206,113.2
19207,98.2
19208,103.5
19209,91.6
19212,154.6
19213,117.4
19216,166.8
19218,114.8
19219,95.6
19220,160.5
19221,171.6
19222,169.0
19224,165.0
19225,114.5
19228,156.5
19229,157.8
19231,137.8
19232,103.4
19235,103.0
19237,100.7
19238,139.3
19240,132.4
19242,134.7
19245,146.8
19246,90.5
19249,104.6
19251,143.6
19256,168.1
19258,93.1
19259,169.4
19261,165.0
19263,149.7
19264,109.3
19266,165.8
19267,125.6
19268,154.7
19270,118.8
19273,129.4
19276,162.3
19278,111.1
19280,105.7
19282,115.1
19283,98.2
19284,141.6
19285,118.1
19289,115.0
19291,163.5
19294,132.5
19297,85.4
19299,103.5
19301,169.9
19304,120.9
19306,129.1
19309,118.8
19310,117.7
19311,123.3
19315,148.3
19316,115.2
19319,163.3
19320,161.1
19321,143.1
19322,105.9
19323,158.5
19325,140.3
19326,136.9
19330,152.6
19331,108.6
19332,166.1
19334,143.1
19335,142.5
19336,93.1
19339,100.3
19346,128.6
19347,160.9
19348,121.4
19350,168.8
19355,141.4
19357,149.1
19362,108.5
19363,136.5
19369,90.8
19373,95.4
19376,90.5
19379,147.3
19383,129.6
19387,129.2
19388,123.9
19390,100.5
19391,162.1
19393,123.3
19398,147.0
19400,169.5
19401,116.2
19403,158.3
19404,100.3
19405,111.5
19406,102.6
19409,92.7
19414,123.8
19415,95.6
19416,139.2
19417,94.4
19419,152.4
19423,148.9
19428,123.9
19430,112.0
19431,158.1
19432,169.9
19434,164.8
19440,145.7
19441,118.8
19445,102.2
19448,109.8
19454,100.8
19455,167.4
19456,99.3
19458,127.7
19461,157.2
19463,122.5
19464,164.7
19465,111.2
19466,168.7
19468,129.1
19475,116.9
19477,136.9
19481,113.7
19482,154.6
19484,162.1
19485,142.0
19491,132.8
19492,100.3
19494,140.1
19495,95.6
19497,108.3
19500,170.3
19505,140.1
19508,123.9
19510,170.8
19512,112.4
19514,155.7
19515,103.4
19516,137.2
19518,142.3
19521,116.2
19522,158.4
19524,169.0
19525,143.1
19527,116.5
19534,95.6
19535,124.2
19537,124.1
19539,146.9
19540,154.6
19541,155.4
19547,126.5
19549,96.8
19551,118.9
19553,160.8
19554,91.6
19555,103.8
19556,125.4
19558,164.8
19560,150.8
19561,111.1
19562,128.1
19565,153.9
19569,123.0
19570,90.9
19571,149.0
19573,101.7
19574,93.1
19576,136.1
19578,137.1
19579,147.7
19581,142.2
19583,125.5
19584,159.1
19586,123.3
19587,121.4
19590,160.9
19592,142.9
19593,114.7
19594,127.0
19595,130.1
19598,159.0
19599,147.9
19600,118.8
19602,116.1
19603,144.0
19604,94.3
19607,165.5
19608,104.4
19611,110.4
19612,122.8
19613,103.4
19614,130.4
19620,101.8
19622,147.8
19624,95.0
19626,125.5
19628,129.1
19629,167.9
19632,156.5
19633,111.9
19637,136.8
19639,141.0
19641,113.7
19642,115.1
19643,109.0
19644,137.1
19645,138.2
19648,112.7
19649,160.0
19650,150.6
19652,145.1
19654,98.2
19658,160.9
19659,154.9
19660,146.5
19661,104.3
19662,128.4
19664,146.9
19665,117.4
19666,126.5
19670,106.2
19673,157.8
19674,157.7
19677,98.1
19678,108.1
19679,91.6
19680,116.2
19682,129.5
19683,112.7
19685,110.4
19686,163.6
19688,145.7
19689,94.1
19691,170.8
19693,124.7
19694,98.2
19696,98.3
19699,104.7
19701,114.0
19702,129.0
19703,110.8
19706,123.9
19707,142.0
19708,134.2
19709,105.7
19710,157.2
19711,102.9
19712,109.8
19713,118.4
19714,116.6
19717,96.0
19719,94.0
19720,113.7
19721,110.4
19723,100.8
19724,97.9
19726,92.3
19733,98.2
19735,148.1
19739,120.0
19742,119.2
19743,133.8
19745,123.9
19747,130.9
19748,155.9
19749,168.4
19754,111.9
19756,171.8
19757,94.3
19758,102.5
19759,118.8
19760,163.4
19762,157.1
19764,145.4
19766,167.6
19767,122.2
19769,95.8
19770,138.7
19773,98.2
19774,102.8
19777,156.7
19779,160.2
19780,100.8
19781,109.1
19783,155.7
19785,121.4
19786,92.9
19787,129.9
19788,132.4
19790,138.1
19792,159.2
19796,157.4
19797,150.1
19799,118.8
19800,162.6
19801,164.1
19805,118.6
19809,150.9
19811,149.8
19812,105.9
19813,115.4
19814,168.8
19816,166.4
19820,169.9
19825,134.2
19828,140.6
19829,161.7
19832,99.0
19834,146.7
19835,160.4
19837,115.8
19839,130.7
19840,126.5
19842,99.9
19843,166.4
19844,125.4
19845,108.9
19847,168.6
19849,141.8
19850,100.8
19852,112.8
19853,100.8
19856,110.2
19866,131.7
19870,158.9
19871,125.3
19874,151.1
19876,101.0
19877,159.9
19879,121.4
19882,145.1
19883,161.6
19884,143.9
19886,163.1
19888,148.7
19890,109.5
19891,100.8
19893,161.7
19894,113.7
19897,90.1
19898,125.7
19899,96.0
19901,93.4
19902,102.6
19904,115.8
19906,136.1
19907,139.4
19909,121.6
19910,156.3
19911,144.7
19914,124.4
19915,126.5
19917,161.9
19919,115.1
19920,118.8
19923,146.2
19925,146.8
19927,124.6
19928,164.9
19929,131.4
19930,151.1
19931,138.6
19932,99.0
19933,96.4
19934,100.8
19935,113.3
19936,151.9
19938,150.1
19942,159.7
19947,131.7
19949,150.1
19953,139.2
19955,129.8
19956,132.1
19957,131.1
19958,98.0
19960,138.7
19961,113.7
19962,93.1
19964,155.5
19966,163.5
19970,143.8
19971,121.6
19972,109.9
19973,132.9
19975,105.9
19976,123.4
19977,131.7
19981,148.0
19983,150.2
19985,97.3
19987,157.0
19988,126.5
19994,119.0
19995,124.5
19996,138.9
19997,171.4
20001,113.7
20002,141.5
20003,144.2
20006,121.3
20007,171.4
20008,152.2
20010,134.0
20012,103.1
20014,129.2
20015,113.7
20017,133.0
20019,91.0
20020,167.8
20022,148.6
20024,102.8
20029,131.7
20033,90.1
20034,142.3
20039,135.4
20042,116.2
20043,145.2
20045,167.4
20046,113.8
20048,102.7
20049,105.8
20052,107.3
20053,124.4
20055,91.5
20056,113.7
20058,132.3
20059,149.6
20060,148.4
20061,92.4
20064,133.7
20067,94.1
20069,118.8
20072,122.8
20073,126.4
20074,162.5
20077,152.3
20078,137.9
20079,171.1
20081,120.4
20082,118.8
20083,142.6
20084,118.4
20088,113.3
20092,135.0
20093,123.8
20094,163.1
20097,121.4
20101,111.3
20103,129.4
20105,136.3
20110,126.5
20112,167.4
20115,121.1
20121,132.2
20123,136.8
20126,124.3
20128,120.6
20130,161.2
20133,117.7
20134,130.3
20136,136.8
20138,98.3
20141,124.8
20142,119.1
20145,93.7
20149,144.8
20150,123.9
20151,155.2
20156,157.3
20159,107.0
20160,114.9
20161,165.9
20162,97.3
20164,144.5
20165,94.0
20166,141.3
20169,126.0
20175,138.3
20177,142.0
20180,102.0
20184,149.0
20187,101.0
20189,133.4
20190,168.8
20191,118.8
20192,125.1
20195,152.2
20196,107.5
20197,153.2
20198,147.7
20202,129.5
20204,142.0
20205,109.8
20209,145.5
20210,98.2
20213,130.6
20215,135.7
20217,142.0
20219,98.9
20222,154.2
20224,158.9
20226,98.8
20227,113.2
20230,129.4
20232,121.4
20233,102.6
20234,159.9
20235,101.8
20236,144.5
20239,101.4
20240,120.7
20241,157.1
20243,117.6
20244,91.9
20245,152.2
20247,94.7
20248,118.1
20250,138.4
20251,92.6
20253,171.5
20255,149.0
20256,144.6
20258,134.2
20261,138.1
20263,135.1
20264,107.1
20266,159.4
20267,122.9
20268,127.6
20271,132.7
20272,116.2
20275,129.2
20277,115.4
20278,98.0
20279,107.6
20281,106.6
20285,142.0
20287,155.1
20289,113.1
20290,133.1
20291,153.3
20293,94.9
20296,92.5
20298,96.5
20299,126.5
20300,108.3
20301,102.9
20302,115.2
20303,166.8
20305,170.8
20309,130.3
20311,169.8
20312,112.8
20313,111.1
20319,125.9
20321,136.6
20324,168.9
20325,123.8
20326,136.8
20328,171.2
20330,123.9
20331,121.8
20333,132.0
20334,130.7
20337,106.0
20339,116.2
20342,98.2
20344,139.7
20345,121.0
20347,101.9
20348,102.7
20349,153.8
20351,141.8
20352,94.6
20353,108.5
20356,103.6
20358,110.5
20361,100.6
20363,163.5
20364,113.5
20365,120.5
20366,151.0
20367,129.1
20368,127.0
20372,159.5
20373,168.2
20374,105.1
20375,96.5
20380,116.2
20382,120.3
20383,136.2
20384,93.6
20386,111.5
20387,165.7
20389,159.8
20390,103.6
20391,160.7
20392,162.4
20393,118.8
20394,91.0
20398,95.7
20399,123.0
20400,93.6
20403,134.5
20405,99.4
20406,104.7
20407,131.7
20411,137.5
20413,130.0
20415,135.4
20417,153.2
20420,116.2
20421,129.8
20422,140.4
20424,137.9
20429,121.3
20434,131.7
20440,105.9
20441,96.8
20442,101.5
20444,122.1
20447,116.5
20448,136.8
20449,135.2
20450,156.6
20453,160.3
20454,114.8
20459,102.7
20461,136.8
20466,101.9
20467,155.5
20473,111.3
20474,139.4
20479,135.5
20483,110.6
20484,134.6
20488,129.1
20490,122.2
20491,149.4
20492,110.0
20493,127.8
20494,127.9
20496,114.6
20499,93.4
20501,167.3
20502,139.4
20503,158.7
20504,161.5
20506,164.9
20508,92.6
20509,102.5
20510,145.7
20512,141.8
20513,156.6
20515,139.4
20517,165.4
20518,154.6
20519,139.6
20520,110.4
20521,137.0
20522,90.5
20524,97.0
20526,111.6
20529,123.9
20531,166.3
20533,154.6
20535,161.6
20536,136.6
20542,147.1
20543,151.0
20544,158.1
20545,156.8
20547,155.9
20549,140.5
20550,150.2
20551,159.5
20555,149.7
20556,121.0
20557,143.9
20560,139.1
20562,162.8
20569,149.6
20570,123.9
20574,123.6
20575,135.3
20577,153.7
20578,113.7
20581,169.4
20583,152.2
20586,108.1
20587,96.4
20589,97.6
20590,152.0
20591,132.3
20594,99.1
20596,147.1
20598,160.3
20599,160.1
20600,141.9
20602,115.6
20603,167.8
20605,118.0
20608,97.0
20610,129.1
20611,147.7
20616,102.8
20618,142.2
20619,126.5
20620,138.2
20623,157.4
20625,90.2
20627,115.6
20628,93.2
20630,119.6
20631,90.1
20633,151.1
20634,155.0
20637,139.4
20643,156.1
20644,164.0
20645,127.2
20646,114.3
20647,157.0
20648,127.6
20649,107.4
20651,123.9
20655,91.8
20656,98.6
20657,156.4
20658,119.0
20660,164.7
20664,160.0
20668,112.3
20670,128.9
20672,167.6
20676,102.5
20677,142.0
20679,116.9
20680,170.1
20682,139.2
20683,154.8
20685,127.3
20686,112.0
20689,108.2
20690,123.9
20691,160.3
20692,166.9
20694,111.8
20695,140.7
20696,137.6
20697,165.5
20699,133.1
20703,90.3
20704,167.3
20705,147.1
20708,110.2
20713,98.7
20716,108.8
20717,151.3
20718,126.5
20719,171.9
20721,113.7
20723,105.2
20724,141.7
20726,169.0
20727,95.8
20730,158.3
20731,123.9
20732,91.4
20733,103.8
20735,152.2
20736,127.0
20739,109.2
20744,95.4
20745,144.5
20747,143.0
20751,93.7
20755,130.1
20756,167.7
20757,109.8
20759,126.5
20763,146.2
20768,93.0
20770,92.2
20772,131.7
20774,133.8
20775,123.3
20777,117.2
20782,123.4
20783,97.8
20784,116.4
20785,122.5
20786,142.0
20789,121.9
20790,113.7
20792,95.0
20796,126.1
20797,167.9
20798,122.8
20799,134.2
20800,139.2
20801,161.9
20802,121.0
20803,142.1
20804,137.9
20808,132.5
20809,112.3
20811,110.7
20812,144.5
20813,95.7
20814,91.0
20815,143.3
20818,123.2
20819,98.7
20820,171.0
20825,165.6
20827,142.0
20829,127.4
20830,128.4
20831,151.8
20832,126.5
20833,167.9
20835,152.7
20836,108.2
20838,129.4
20839,137.1
20840,142.0
20843,115.4
20844,106.2
20845,106.6
20846,171.2
20848,93.0
20849,133.3
20853,142.0
20855,99.1
20857,162.6
20860,126.3
20861,137.0
20866,152.2
20867,139.4
20870,158.2
20871,171.4
20873,112.8
20874,91.9
20876,165.6
20880,157.4
20883,112.0
20890,114.1
20892,167.5
20893,156.4
20894,154.8
20901,117.4
20902,138.5
20903,126.7
20906,108.7
20907,109.1
20908,131.7
20909,144.3
20913,114.8
20915,136.3
20917,123.4
20918,147.5
20921,154.8
20927,118.1
20929,167.1
20931,108.8
20932,170.8
20933,129.4
20934,149.7
20941,145.7
20943,157.1
20944,149.6
20947,131.7
20949,119.5
20952,164.4
20953,161.9
20957,152.1
20958,115.5
20959,147.0
20960,138.0
20962,162.5
20964,104.8
20966,141.4
20967,170.4
20971,107.6
20975,144.5
20977,121.6
20979,99.2
20981,150.7
20982,129.2
20983,158.2
20984,109.3
20986,171.5
20987,107.7
20988,123.9
20989,136.6
20990,114.9
20993,125.1
20994,164.9
20995,112.4
20998,130.6
21000,149.3
21002,157.4
21009,166.2
21010,106.1
21012,151.2
21013,135.9
21015,142.0
21016,118.6
21017,133.1
21019,160.3
21022,169.5
21024,110.0
21025,141.0
21026,161.0
21028,144.0
21029,129.1
21030,121.8
21033,127.2
21036,97.6
21037,147.5
21038,171.3
21039,168.6
21041,112.4
21042,106.5
21043,160.0
21044,100.2
21045,152.7
21048,165.2
21054,122.0
21055,166.9
21056,134.2
21062,125.3
21064,120.0
21065,135.9
21069,123.9
21070,98.3
21075,161.6
21076,157.6
21077,127.9
21081,100.3
21083,154.8
21085,162.2
21088,100.0
21089,101.2
21090,92.0
21091,147.2
21092,138.2
21094,140.2
21096,166.6
21097,139.4
21098,120.4
21099,111.6
21100,114.8
21104,107.1
21106,138.6
21107,146.9
21109,126.7
21110,134.2
21113,98.3
21117,114.3
21121,170.1
21122,143.0
21124,147.1
21126,119.6
21127,90.4
21129,161.7
21130,139.1
21134,109.5
21135,144.2
21137,134.2
21139,129.0
21140,158.9
21142,98.1
21143,134.4
21144,122.4
21146,168.2
21147,137.8
21150,136.8
21152,102.4
21153,116.4
21155,139.6
21158,159.9
21165,149.7
21169,94.5
21174,92.0
21177,165.8
21178,147.1
21182,121.9
21184,94.4
21185,93.9
21191,144.5
21193,96.6
21196,168.6
21198,157.2
21202,144.7
21204,136.8
21206,151.5
21209,96.8
21210,116.8
21213,96.1
21217,95.8
21218,149.7
21219,138.0
21220,105.8
21222,111.1
21223,110.7
21225,153.2
21230,141.1
21232,157.4
21233,132.2
21240,101.4
21242,97.2
21245,144.5
21252,108.9
21259,160.0
21261,93.8
21262,150.7
21263,132.0
21266,143.7
21267,105.8
21268,160.0
21269,144.6
21270,120.8
21272,157.4
21276,137.0
21279,94.2
21281,145.8
21282,167.9
21283,164.9
21285,134.2
21286,157.2
21288,159.9
21300,165.1
21301,129.2
21303,106.1
21306,166.4
21307,96.0
21310,111.6
21312,111.5
21313,160.0
21318,100.2
21321,145.5
21322,167.4
21324,128.2
21326,134.2
21332,141.5
21333,141.5
21334,123.8
21336,163.9
21339,119.7
21340,165.1
21342,116.0
21344,124.4
21347,139.7
21348,100.4
21349,95.9
21351,171.3
21353,149.7
21355,134.8
21359,162.1
21362,91.7
21364,107.5
21366,96.7
21367,131.7
21368,149.6
21369,122.6
21370,113.6
21373,129.4
21381,165.1
21385,95.2
21386,141.6
21387,169.9
21388,108.3
21390,92.4
21391,105.5
21393,111.5
21394,144.5
21396,99.5
21397,141.5
21399,139.8
21400,124.7
21403,105.5
21406,164.9
21407,129.1
21408,140.0
21412,95.4
21413,159.5
21415,125.6
21416,91.2
21418,110.0
21419,108.5
21421,157.4
