0,18.5
1,8.1
2,3.0
4,21.8
5,15.9
6,20.8
7,33.9
9,35.1
10,15.9
11,15.8
12,49.3
14,51.9
17,36.5
19,10.8
20,27.9
21,27.6
24,13.3
25,7.0
26,19.8
27,27.0
31,28.7
32,34.2
33,57.1
36,5.6
37,34.5
40,20.0
41,17.0
42,25.2
43,-7.2
46,18.1
48,24.5
50,16.5
52,51.9
54,23.0
56,5.2
58,32.9
59,21.7
61,8.1
62,3.0
68,25.3
69,13.3
70,13.3
76,28.9
78,24.3
79,18.5
80,19.5
82,18.8
84,17.7
86,19.3
89,18.5
91,20.6
94,8.4
95,35.1
97,18.0
98,26.2
100,31.5
106,24.9
107,28.8
109,21.8
112,14.3
113,25.5
116,10.5
117,28.8
121,25.9
122,35.7
123,30.5
129,23.6
130,9.7
131,17.1
133,16.4
137,34.6
139,21.0
147,17.4
148,16.9
149,15.9
150,10.3
156,32.0
158,22.8
159,15.9
161,7.9
163,15.0
164,11.3
165,24.1
166,23.4
169,10.8
170,32.6
171,10.0
180,8.2
185,15.1
187,23.7
189,10.8
194,25.8
200,8.2
202,24.5
203,5.3
206,18.8
209,10.8
211,14.2
212,9.2
213,31.7
214,5.7
215,13.3
217,19.7
220,10.8
226,28.7
227,17.8
229,23.3
230,28.8
231,35.9
232,7.0
233,18.6
235,24.2
236,20.0
237,22.4
239,22.2
240,3.0
242,23.5
243,14.5
245,26.1
247,12.9
249,23.6
250,15.9
252,24.2
256,22.7
257,17.6
259,7.3
261,5.6
262,20.8
264,29.9
265,29.9
268,31.3
270,18.5
273,8.5
274,19.3
276,14.0
277,19.2
280,8.2
285,34.3
286,15.6
289,10.8
295,17.4
296,23.0
297,30.1
298,8.3
299,16.8
300,5.6
301,29.1
306,21.5
307,13.2
309,10.8
310,14.8
311,29.6
314,10.2
315,24.8
317,30.0
318,32.2
319,10.8
320,15.1
322,10.3
323,30.9
330,36.5
331,35.6
339,10.1
340,3.0
342,9.3
345,19.2
346,17.3
349,14.0
350,33.9
352,23.7
358,6.9
360,3.0
361,31.0
364,10.6
366,21.6
367,12.8
368,21.1
369,28.8
370,28.9
372,5.0
373,32.2
375,22.8
376,10.9
377,25.6
378,6.3
379,5.6
382,20.0
383,25.7
384,21.8
385,12.3
386,23.4
388,19.7
389,21.0
390,30.8
392,28.0
394,8.3
396,15.8
397,35.5
400,8.2
405,12.3
409,15.9
410,9.6
411,34.8
413,29.4
415,33.4
417,6.5
419,8.2
420,11.6
422,26.1
425,27.3
429,10.8
430,28.6
433,17.5
434,23.4
436,32.0
439,8.2
441,23.5
447,25.0
448,10.8
451,5.5
452,35.0
453,16.1
459,10.8
462,14.1
463,22.3
466,28.8
469,10.9
470,36.5
471,18.6
472,21.8
474,31.2
476,35.7
479,18.4
480,5.6
481,22.7
482,20.6
485,19.9
486,27.4
487,5.6
488,8.7
489,31.3
490,19.6
492,17.8
496,24.9
499,5.6
500,6.1
501,8.5
504,28.3
508,26.2
509,18.3
510,32.5
513,8.8
514,12.2
515,33.5
516,14.4
519,8.2
522,35.0
523,9.1
525,23.5
526,6.3
527,20.0
529,21.0
531,25.6
533,34.6
535,22.3
537,33.8
539,8.2
541,30.4
542,16.6
547,14.3
548,15.9
549,6.2
550,9.4
558,29.1
559,8.2
561,8.6
562,33.2
566,23.9
568,10.8
570,18.5
574,19.8
576,14.8
578,10.8
580,18.2
581,10.5
582,34.1
585,10.6
587,23.9
588,39.1
592,15.3
594,11.7
595,24.7
596,25.5
597,18.6
598,5.9
600,3.0
602,20.5
603,19.9
604,17.1
609,33.9
613,21.8
614,26.2
617,15.1
619,5.6
620,23.5
621,23.6
622,15.1
623,8.0
624,30.5
625,12.2
628,28.8
629,12.0
630,5.2
632,30.7
638,5.6
639,35.1
643,13.9
644,27.6
645,11.8
647,10.2
648,23.6
652,30.7
653,32.9
655,6.7
657,28.0
659,5.6
665,17.2
668,18.5
669,25.4
671,34.3
672,33.8
673,7.1
674,27.2
676,19.6
678,8.2
679,33.6
681,24.8
682,24.6
683,19.4
684,9.9
685,28.9
688,13.3
689,21.6
691,21.9
695,12.6
698,8.2
699,15.7
700,15.0
704,25.9
705,22.2
706,10.3
707,10.8
709,23.1
710,14.5
711,26.1
712,15.7
715,27.1
716,14.7
717,10.8
722,17.6
724,35.3
725,15.2
727,16.4
729,36.5
730,7.6
731,7.1
732,15.4
738,6.6
739,3.0
745,31.4
746,6.5
748,31.3
752,14.6
754,7.9
755,18.9
756,14.5
758,3.0
759,19.6
764,28.7
765,24.8
766,16.1
767,9.4
768,28.8
770,18.6
775,21.4
776,28.0
777,27.7
778,5.6
779,8.5
780,29.5
782,19.3
784,16.0
785,14.3
786,30.0
787,21.0
789,22.7
791,11.2
792,14.0
798,8.2
799,32.9
801,11.3
802,15.3
806,20.1
807,15.9
810,21.6
811,11.9
812,8.9
813,11.8
818,8.2
819,7.6
822,29.4
823,26.3
827,13.3
830,12.4
833,25.0
836,33.5
837,10.8
840,35.4
841,18.2
843,6.2
846,19.7
847,39.1
848,21.6
851,10.4
852,33.3
853,7.1
855,29.6
858,19.9
859,3.0
860,19.7
863,5.3
865,30.6
867,18.5
868,36.5
870,14.8
871,6.9
873,10.6
877,18.8
878,3.0
880,14.5
881,15.1
885,25.5
887,33.9
889,33.7
893,27.6
894,20.0
895,30.0
896,20.9
897,8.1
898,3.0
900,22.5
902,8.3
905,18.2
907,26.2
908,19.8
911,14.1
912,32.0
915,20.4
917,8.2
922,27.8
923,18.7
925,16.7
927,21.0
929,10.0
930,30.1
934,23.3
935,7.0
936,14.6
937,8.2
938,11.5
942,17.3
946,23.2
947,13.3
949,22.8
951,32.5
953,24.5
956,18.3
957,10.8
960,35.1
962,15.6
963,23.9
967,41.6
969,22.8
971,29.5
973,26.4
975,8.5
977,3.0
982,21.5
983,22.2
986,19.9
987,39.1
990,22.9
992,21.5
994,12.3
998,5.6
999,33.9
1000,27.0
1001,10.1
1002,26.8
1003,21.7
1004,17.7
1007,33.9
1008,21.2
1009,33.0
1010,10.3
1011,14.1
1017,13.6
1018,-2.1
1019,34.1
1021,29.1
1023,14.2
1025,28.3
1026,32.9
1027,25.8
1028,27.5
1030,54.5
1032,23.1
1033,18.6
1035,22.4
1037,32.2
1038,30.5
1039,32.6
1040,15.2
1041,33.9
1042,27.0
1043,15.8
1049,21.1
1051,34.3
1052,39.1
1053,28.0
1062,31.1
1063,6.6
1064,23.6
1067,9.4
1068,18.7
1073,23.1
1075,27.7
1076,18.5
1077,23.9
1079,32.8
1080,31.2
1081,31.0
1086,30.4
1087,44.2
1088,14.3
1091,21.8
1093,24.8
1094,33.1
1097,19.0
1098,-4.7
1099,7.5
1101,5.4
1103,15.2
1110,54.5
1112,23.0
1116,14.3
1121,36.5
1122,34.9
1123,33.7
1125,30.1
1128,29.5
1129,29.6
1131,11.4
1133,33.9
1135,20.4
1136,32.1
1139,21.2
1140,17.1
1143,21.2
1144,21.0
1145,7.6
1146,27.5
1149,24.8
1150,11.5
1153,20.6
1154,28.3
1156,13.3
1159,31.3
1161,8.5
1162,7.5
1164,12.6
1166,35.6
1167,49.3
1168,20.2
1173,21.7
1174,13.5
1178,-7.2
1179,33.4
1181,22.9
1182,32.5
1184,5.7
1185,29.6
1187,25.4
1189,31.9
1190,51.9
1191,31.2
1192,22.8
1194,31.2
1195,30.8
1197,18.8
1198,22.9
1199,16.5
1200,9.6
1201,31.7
1202,36.5
1207,33.7
1210,23.1
1212,11.9
1213,31.3
1215,29.5
1216,7.8
1218,30.7
1219,14.7
1221,20.6
1222,28.3
1223,28.4
1224,18.5
1229,19.4
1230,28.2
1231,28.8
1233,25.7
1234,11.0
1235,10.8
1239,25.9
1241,5.6
1247,54.5
1248,28.1
1250,8.8
1251,12.5
1252,23.1
1253,5.3
1255,34.7
1257,21.5
1259,3.0
1260,31.4
1261,35.5
1266,14.5
1268,25.0
1269,54.5
1270,14.8
1273,8.8
1275,27.4
1277,6.3
1279,6.8
1280,21.5
1281,36.5
1288,30.6
1289,29.7
1290,31.5
1292,36.5
1293,27.2
1297,6.3
1301,15.2
1303,23.6
1308,32.3
1311,14.3
1314,15.9
1316,27.2
1318,11.4
1319,7.2
1320,15.6
1323,26.6
1325,29.4
1326,20.4
1327,49.3
1330,16.8
1338,-4.7
1341,17.5
1342,33.4
1349,54.5
1357,7.4
1358,26.4
1359,20.8
1360,36.5
1362,23.6
1365,22.6
1367,11.5
1368,12.5
1369,24.2
1371,26.8
1372,33.9
1373,24.4
1375,21.9
1376,35.2
1381,35.3
1383,21.0
1384,31.1
1386,18.3
1387,16.4
1390,34.6
1391,19.0
1392,12.6
1394,25.2
1395,10.8
1401,31.7
1403,30.4
1406,51.9
1407,12.4
1413,20.1
1414,10.8
1418,-2.1
1419,15.7
1420,32.2
1423,8.1
1424,14.0
1425,17.2
1426,26.0
1429,51.9
1431,6.3
1432,9.2
1436,20.7
1438,12.4
1439,20.1
1440,36.5
1442,19.2
1443,31.5
1444,21.9
1445,18.1
1447,28.7
1450,16.7
1451,5.1
1452,28.8
1453,33.3
1454,14.1
1459,21.2
1461,16.7
1462,12.9
1464,18.5
1465,7.1
1468,26.8
1473,17.8
1475,8.2
1478,6.1
1479,8.3
1481,36.0
1484,19.3
1485,41.6
1486,34.4
1487,24.7
1489,11.3
1493,21.6
1494,30.4
1495,33.5
1497,-7.2
1506,17.7
1508,57.1
1509,13.2
1510,35.2
1511,34.9
1513,6.2
1515,25.7
1516,22.0
1518,9.2
1519,33.9
1525,35.4
1528,5.3
1530,9.4
1531,36.5
1532,18.0
1533,18.1
1535,33.9
1537,20.8
1540,8.2
1543,21.0
1544,24.6
1545,26.0
1547,19.1
1548,21.4
1549,22.9
1550,23.4
1554,13.3
1555,29.6
1556,33.7
1561,22.8
1562,22.8
1563,6.4
1564,20.4
1565,49.3
1570,13.1
1576,-7.2
1577,28.4
1578,33.4
1580,31.7
1583,24.4
1584,26.5
1586,5.1
1587,10.4
1588,54.5
1591,20.7
1592,28.7
1595,13.6
1596,24.0
1597,19.1
1600,36.5
1604,13.4
1605,14.9
1609,34.8
1610,8.5
1611,33.9
1617,26.9
1618,30.8
1620,28.8
1623,18.5
1628,21.7
1629,32.7
1630,9.2
1633,20.2
1634,8.2
1636,19.1
1637,32.5
1638,5.7
1640,35.0
1641,30.0
1643,34.8
1644,36.5
1651,35.5
1652,29.5
1653,28.5
1654,31.0
1656,-4.7
1657,30.4
1659,29.0
1660,28.7
1661,6.1
1662,14.5
1666,11.5
1668,54.5
1669,20.6
1670,21.2
1671,7.0
1673,20.3
1675,22.0
1679,36.5
1680,18.7
1682,28.2
1683,34.8
1685,11.9
1687,12.3
1688,17.5
1690,36.5
1691,28.6
1692,18.9
1696,30.7
1697,7.9
1699,27.2
1701,23.6
1703,23.8
1704,24.3
1705,8.5
1706,34.5
1709,11.0
1710,30.6
1711,32.1
1713,15.9
1714,35.0
1720,10.8
1721,9.0
1722,9.1
1723,13.2
1724,10.2
1725,46.8
1727,6.2
1730,13.1
1731,25.3
1732,10.3
1733,32.0
1735,32.7
1736,-4.7
1738,23.9
1740,27.4
1743,16.0
1744,19.3
1746,5.2
1747,54.5
1749,28.5
1750,7.1
1753,6.8
1755,26.4
1759,33.9
1760,26.4
1761,31.0
1762,13.4
1764,22.5
1766,9.9
1770,33.9
1774,16.5
1775,29.2
1779,31.0
1781,21.0
1785,24.9
1791,6.8
1793,20.0
1794,10.8
1795,24.1
1796,8.1
1798,24.7
1799,9.5
1800,28.3
1801,21.9
1802,19.4
1805,51.9
1809,23.2
1810,27.8
1811,19.7
1812,28.1
1814,35.5
1816,-2.1
1817,31.8
1818,22.8
1819,11.3
1821,10.5
1827,51.9
1829,7.4
1836,20.4
1837,14.3
1838,9.5
1839,36.5
1842,14.0
1843,13.2
1845,32.6
1846,25.0
1847,11.6
1849,18.0
1850,31.3
1852,8.3
1855,30.7
1861,6.6
1862,15.9
1863,11.0
1864,16.9
1865,18.4
1866,26.3
1869,11.7
1872,19.7
1873,8.2
1876,9.6
1877,17.4
1879,26.5
1882,10.3
1884,44.2
1885,34.0
1886,9.7
1887,6.1
1888,23.4
1892,29.2
1893,12.3
1894,32.7
1895,-4.7
1899,17.8
1902,9.2
1904,22.7
1906,54.5
1907,11.1
1908,34.7
1909,23.1
1911,5.3
1913,19.4
1914,23.8
1915,5.9
1917,33.9
1919,8.0
1927,12.5
1929,15.3
1930,36.5
1935,29.7
1936,34.9
1939,5.8
1941,21.0
1943,19.3
1947,24.1
1948,7.8
1952,13.3
1953,28.3
1954,6.1
1958,19.0
1959,10.0
1963,8.4
1964,49.3
1968,21.8
1972,16.8
1975,-9.8
1980,6.3
1981,20.8
1982,32.4
1983,25.3
1985,20.4
1986,54.5
1991,10.8
1992,5.8
1998,36.5
2000,30.5
2002,14.8
2003,33.6
2007,29.0
2008,28.0
2010,31.3
2011,29.6
2012,36.0
2014,8.4
2019,10.2
2021,18.5
2023,30.0
2024,34.9
2026,19.7
2027,5.2
2028,13.0
2029,12.6
2030,6.7
2032,10.8
2033,35.3
2034,30.6
2036,28.5
2038,14.1
2042,29.4
2043,54.5
2046,33.0
2047,10.7
2049,9.5
2050,25.1
2055,5.5
2056,3.0
2059,15.6
2064,11.7
2066,54.5
2067,23.2
2068,28.4
2069,9.4
2072,27.7
2073,34.0
2074,27.6
2077,33.9
2080,23.1
2082,14.5
2084,30.5
2086,29.7
2087,19.7
2088,36.5
2090,10.6
2091,24.1
2092,11.5
2094,10.7
2095,24.9
2096,15.9
2097,7.9
2100,21.0
2101,33.6
2102,19.6
2104,7.4
2106,19.4
2107,30.4
2108,27.3
2111,13.3
2113,5.7
2114,35.1
2115,9.2
2117,34.4
2118,30.6
2120,16.1
2121,21.7
2122,8.5
2123,46.8
2124,6.1
2125,8.3
2126,22.8
2129,8.4
2132,34.6
2135,-7.2
2137,21.6
2138,33.6
2139,7.8
2140,30.0
2141,21.8
2143,17.5
2144,28.5
2145,13.9
2146,54.5
2149,23.8
2151,21.6
2152,17.8
2153,19.8
2155,18.3
2157,36.5
2159,32.2
2161,35.4
2162,25.9
2163,8.9
2168,33.9
2169,19.4
2172,36.0
2173,33.1
2174,20.5
2177,13.3
2180,18.5
2182,19.1
2183,5.7
2189,28.2
2191,18.6
2192,10.8
2195,25.4
2196,35.3
2200,35.3
2202,8.4
2203,51.9
2207,6.0
2210,14.0
2213,31.2
2214,-7.2
2215,9.0
2216,18.6
2217,6.4
2219,17.5
2221,27.8
2223,28.7
2226,51.9
2227,33.9
2234,28.8
2237,36.5
2238,34.2
2240,11.2
2241,23.8
2244,27.6
2245,9.0
2247,11.1
2248,31.3
2250,15.1
2251,12.1
2253,21.8
2255,20.8
2257,13.4
2258,34.3
2259,6.2
2260,18.5
2261,9.9
2262,11.9
2264,34.9
2267,17.7
2269,13.5
2270,10.8
2272,5.6
2275,27.1
2277,5.3
2279,7.0
2280,10.2
2282,41.6
2283,28.0
2285,20.2
2288,34.1
2289,9.6
2290,5.5
2291,33.0
2292,5.0
2293,-7.2
2297,11.5
2300,11.8
2301,6.9
2303,5.6
2304,21.1
2305,54.5
2307,12.7
2313,14.0
2316,36.5
2318,27.1
2319,17.5
2322,12.4
2323,8.4
2324,5.1
2325,21.0
2326,22.7
2327,29.1
2328,33.9
2330,36.0
2334,8.8
2335,8.7
2336,29.7
2338,5.7
2339,21.0
2340,34.6
2342,31.4
2343,16.9
2346,28.3
2347,24.5
2350,30.4
2351,10.8
2354,9.3
2360,20.3
2362,49.3
2363,33.9
2365,28.0
2366,23.0
2368,21.5
2369,29.0
2370,27.5
2371,27.9
2373,-7.2
2377,24.2
2379,17.0
2380,21.8
2381,27.7
2382,14.3
2384,51.9
2385,35.7
2392,34.5
2396,34.2
2397,33.9
2398,31.9
2399,22.0
2405,19.9
2408,33.9
2409,13.0
2415,12.6
2416,6.6
2417,33.6
2419,18.5
2421,30.3
2423,35.1
2424,21.0
2428,26.2
2429,12.7
2430,8.2
2433,8.7
2435,8.0
2436,30.9
2438,34.5
2441,36.5
2446,7.6
2447,8.0
2448,32.4
2450,14.9
2451,25.5
2452,-4.7
2453,22.2
2454,16.5
2455,13.0
2457,20.5
2462,28.5
2464,54.5
2465,34.8
2466,14.6
2467,35.2
2469,10.9
2471,13.1
2476,36.5
2479,31.3
2487,39.1
2488,5.4
2491,16.3
2495,15.0
2498,23.6
2500,12.4
2502,17.8
2508,5.9
2509,15.9
2510,15.0
2511,34.2
2513,23.8
2515,12.8
2517,23.0
2520,26.8
2521,31.8
2522,46.8
2523,18.4
2525,9.6
2526,6.7
2533,-7.2
2535,6.8
2536,9.3
2544,54.5
2545,32.3
2546,27.4
2549,30.1
2555,33.9
2557,26.9
2558,21.7
2559,7.8
2561,20.7
2565,33.5
2567,33.9
2572,25.2
2575,20.9
2578,18.5
2579,23.5
2580,28.8
2581,35.0
2583,9.6
2584,32.6
2585,9.4
2588,21.5
2589,20.5
2590,13.3
2593,7.2
2595,13.1
2597,15.1
2599,9.2
2601,49.3
2606,12.0
2607,33.3
2609,24.8
2611,11.0
2612,14.7
2613,-4.7
2618,34.5
2623,11.9
2624,51.9
2628,35.9
2631,5.5
2632,14.1
2634,9.9
2635,33.9
2637,7.9
2638,28.9
2639,34.5
2641,22.1
2642,15.3
2643,22.0
2646,26.3
2647,28.8
2650,34.1
2651,24.5
2653,29.4
2654,35.2
2656,15.7
2658,5.6
2659,18.5
2660,25.6
2662,32.7
2664,8.5
2667,6.0
2669,19.4
2670,8.2
2676,10.4
2677,6.7
2679,18.2
2680,41.6
2681,5.7
2682,7.6
2685,22.4
2686,21.2
2690,19.2
2692,-4.7
2693,5.9
2694,27.4
2698,28.1
2700,10.4
2703,54.5
2704,35.5
2705,8.9
2706,27.8
2707,33.7
2708,18.2
2709,15.9
2712,8.9
2714,33.9
2718,25.3
2722,13.2
2723,21.5
2725,16.6
2726,36.5
2729,20.4
2731,18.3
2732,28.3
2733,12.0
2734,30.3
2735,32.6
2738,21.0
2739,33.3
2741,28.4
2742,14.7
2743,27.5
2744,35.1
2747,14.5
2749,13.3
2751,10.5
2753,9.5
2760,49.3
2761,18.6
2762,35.6
2764,31.4
2765,14.3
2769,30.6
2770,5.8
2771,-9.8
2772,24.3
2773,15.3
2774,5.2
2776,20.5
2777,28.0
2781,24.4
2782,11.4
2783,51.9
2787,27.7
2794,20.2
2795,33.9
2799,9.6
2801,12.3
2802,22.3
2803,18.1
2804,20.2
2806,31.3
2807,17.7
2809,10.2
2810,34.1
2813,28.5
2816,28.2
2817,8.9
2818,18.5
2819,19.2
2822,34.5
2825,17.2
2826,35.6
2828,20.8
2829,8.2
2831,31.3
2833,26.8
2835,17.0
2836,15.9
2837,26.7
2839,36.5
2841,17.4
2846,9.7
2847,9.0
2849,35.5
2850,-4.7
2852,34.6
2853,24.3
2854,18.7
2855,35.9
2857,31.4
2859,18.7
2861,31.5
2863,54.5
2865,13.4
2866,24.3
2872,19.7
2874,33.9
2876,30.7
2877,25.5
2881,22.9
2882,24.8
2883,16.2
2884,6.1
2885,39.1
2886,35.2
2887,8.4
2888,20.8
2890,20.5
2891,20.0
2895,14.3
2896,21.0
2899,9.5
2900,12.3
2903,31.8
2908,13.3
2909,30.2
2911,14.5
2913,14.5
2914,18.0
2918,27.9
2919,44.2
2922,16.7
2924,9.7
2925,8.4
2926,7.7
2927,29.5
2931,-7.2
2932,18.4
2934,12.8
2935,27.9
2936,16.0
2938,16.1
2940,22.8
2941,10.3
2942,51.9
2945,35.1
2947,25.5
2950,13.6
2951,13.8
2954,36.5
2957,30.4
2958,28.8
2962,8.1
2964,27.0
2965,31.3
2968,20.3
2969,11.1
2970,22.1
2971,21.5
2972,19.4
2973,5.1
2975,25.7
2976,21.0
2977,12.2
2979,12.0
2980,26.0
2989,10.8
3000,49.3
3008,29.5
3009,20.5
3011,-7.2
3012,31.8
3013,30.0
3014,27.4
3017,21.4
3019,13.6
3021,29.8
3022,51.9
3023,21.6
3024,35.8
3026,17.6
3027,31.9
3028,5.6
3029,31.2
3030,30.3
3031,35.8
3033,10.6
3034,33.9
3035,10.0
3036,32.2
3037,14.6
3038,25.4
3040,13.6
3042,29.9
3045,31.3
3046,10.8
3049,31.8
3051,8.7
3052,17.4
3054,14.6
3056,28.1
3057,15.9
3058,21.4
3059,5.1
3060,34.3
3061,20.4
3063,8.1
3066,27.6
3067,32.0
3068,8.2
3071,16.9
3074,35.6
3075,11.3
3077,6.9
3079,41.6
3083,26.7
3086,8.3
3088,18.8
3090,-7.2
3093,30.7
3096,24.3
3099,33.3
3100,6.5
3101,54.5
3104,7.8
3108,13.6
3110,34.1
3112,33.9
3116,11.5
3118,33.5
3119,19.7
3120,8.6
3125,36.5
3127,8.3
3130,26.4
3132,28.2
3134,23.3
3135,19.5
3136,21.0
3140,25.2
3141,17.9
3142,29.2
3143,8.3
3144,24.5
3147,13.3
3149,17.0
3150,33.7
3154,28.6
3156,34.1
3157,26.2
3159,49.3
3160,24.1
3162,28.3
3163,6.6
3164,20.7
3165,8.1
3166,25.1
3167,31.2
3168,24.7
3169,30.5
3170,-7.2
3171,15.2
3172,16.3
3173,5.3
3175,8.7
3176,11.4
3177,18.6
3181,51.9
3183,11.9
3184,21.4
3185,26.9
3187,5.7
3188,33.6
3190,22.3
3192,26.0
3193,36.5
3194,31.0
3196,21.2
3198,5.1
3199,9.3
3203,19.5
3205,31.3
3206,28.6
3209,27.2
3211,19.5
3215,34.3
3216,21.0
3217,8.3
3218,5.9
3219,26.4
3220,8.4
3225,24.1
3226,35.3
3227,8.2
3228,9.8
3231,32.7
3233,26.0
3234,32.3
3236,23.2
3237,36.5
3238,35.6
3241,12.8
3242,20.2
3244,8.7
3245,11.1
3246,15.5
3248,12.0
3249,-4.7
3253,18.9
3255,18.0
3260,31.8
3261,57.1
3262,32.9
3266,5.2
3268,29.7
3270,22.0
3271,25.9
3272,33.9
3273,27.2
3275,16.4
3276,15.9
3278,31.9
3280,20.5
3282,5.5
3283,36.5
3284,25.2
3285,25.7
3286,14.1
3287,29.8
3288,9.2
3289,32.2
3290,34.9
3295,23.6
3296,10.0
3298,30.6
3299,17.1
3301,6.2
3302,35.8
3305,23.7
3306,15.9
3307,28.7
3308,22.1
3310,31.3
3311,13.0
3312,25.7
3313,5.6
3314,29.8
3317,44.2
3318,26.1
3320,16.1
3321,18.5
3323,26.4
3324,12.6
3325,31.3
3330,-7.2
3331,33.3
3334,16.3
3335,28.2
3337,32.2
3339,9.4
3340,15.0
3341,51.9
3351,27.8
3352,33.9
3357,31.0
3361,32.7
3363,33.9
3366,30.5
3373,17.0
3375,18.5
3381,5.1
3382,33.8
3384,11.7
3387,13.3
3389,16.3
3390,35.4
3394,34.6
3395,25.1
3396,28.8
3398,49.3
3401,32.7
3402,9.9
3404,31.3
3405,26.8
3407,26.5
3409,-7.2
3411,24.2
3412,31.8
3414,22.9
3418,13.9
3420,31.5
3421,51.9
3424,20.6
3428,11.8
3432,36.5
3433,5.3
3436,33.3
3437,27.9
3442,23.6
3443,31.3
3447,30.1
3448,30.2
3449,14.8
3450,12.1
3451,9.6
3452,16.4
3453,7.2
3454,19.8
3456,15.9
3457,16.3
3463,30.0
3465,22.1
3466,17.0
3467,8.2
3468,14.0
3469,27.1
3470,12.6
3471,25.7
3472,34.0
3475,31.7
3477,39.1
3480,12.2
3482,22.0
3486,7.9
3488,-7.2
3489,15.1
3490,30.4
3493,32.3
3494,13.6
3498,20.5
3499,13.0
3500,54.5
3506,35.8
3508,20.2
3510,30.4
3511,33.9
3512,23.1
3516,18.2
3517,34.7
3518,14.9
3520,12.7
3523,36.5
3529,15.4
3530,28.1
3534,21.0
3535,33.3
3536,8.4
3538,21.9
3541,7.4
3543,18.9
3544,20.3
3546,10.8
3547,30.0
3549,9.2
3551,23.4
3552,28.7
3554,20.4
3556,8.1
3557,46.8
3562,16.2
3563,9.8
3565,31.5
3567,24.8
3568,-7.2
3576,28.6
3579,51.9
3583,30.2
3586,19.3
3587,12.0
3588,16.9
3592,33.9
3596,9.8
3597,29.4
3602,18.5
3603,31.3
3604,27.9
3605,35.7
3606,28.9
3610,18.1
3612,19.3
3614,21.0
3615,9.4
3618,16.1
3619,18.7
3621,5.8
3623,11.3
3625,8.2
3629,30.6
3633,19.4
3634,16.2
3636,36.5
3638,30.0
3643,28.4
3645,19.9
3647,-2.1
3650,35.8
3652,28.3
3653,19.9
3654,27.4
3655,11.7
3656,20.1
3658,14.5
3659,57.1
3664,12.1
3665,5.5
3667,10.8
3668,18.7
3669,30.5
3670,31.1
3671,33.9
3674,20.6
3676,15.1
3678,19.2
3679,10.6
3681,6.5
3682,36.5
3684,22.4
3686,15.3
3690,28.9
3693,23.6
3696,17.2
3699,21.4
3704,13.3
3706,35.4
3707,32.7
3710,10.8
3712,21.0
3715,14.3
3716,44.2
3717,6.4
3719,17.9
3722,12.8
3723,5.3
3725,25.2
3726,16.7
3728,-7.2
3729,11.4
3732,19.8
3738,7.1
3739,51.9
3741,30.9
3743,11.4
3746,15.5
3747,27.5
3750,33.9
3756,35.0
3757,17.4
3759,17.9
3760,9.3
3762,33.9
3763,23.7
3764,11.8
3765,21.4
3766,27.4
3767,30.9
3769,23.8
3770,17.6
3771,25.8
3773,18.5
3775,5.9
3776,13.2
3782,33.5
3783,21.2
3784,13.3
3786,17.2
3787,26.1
3788,10.5
3789,26.5
3790,29.2
3791,29.1
3792,13.1
3794,15.8
3796,49.3
3797,5.8
3800,21.3
3804,30.9
3808,-9.8
3811,28.9
3812,19.7
3816,22.9
3817,28.0
3818,34.7
3819,51.9
3820,15.1
3821,31.5
3824,18.3
3826,13.0
3829,5.3
3830,36.5
3831,10.9
3833,25.3
3834,15.0
3835,19.0
3837,27.8
3838,20.5
3839,32.3
3842,31.3
3843,20.5
3844,15.5
3846,12.9
3847,18.5
3851,7.4
3852,26.8
3854,15.9
3857,5.9
3862,30.8
3863,21.3
3864,9.6
3865,8.2
3867,10.6
3868,11.5
3872,17.5
3875,39.1
3877,31.0
3879,19.1
3882,11.4
3885,6.8
3886,10.5
3887,-4.7
3888,34.3
3892,9.6
3893,8.2
3898,54.5
3899,28.6
3900,30.9
3902,30.7
3905,25.2
3906,20.2
3909,33.9
3910,23.8
3911,35.0
3913,8.3
3914,10.1
3915,29.2
3919,9.9
3920,32.4
3921,36.5
3924,16.5
3925,14.0
3927,31.0
3928,17.5
3931,22.2
3933,21.0
3934,6.0
3936,10.4
3937,8.2
3938,18.2
3939,22.9
3941,11.4
3943,31.6
3944,13.3
3946,10.6
3948,5.9
3949,10.6
3950,17.8
3955,46.8
3956,34.8
3957,22.6
3959,22.0
3961,8.0
3962,35.4
3965,13.3
3966,-7.2
3967,26.0
3969,13.3
3974,30.7
3976,6.9
3978,51.9
3981,21.9
3983,31.9
3986,19.0
3990,33.9
3994,32.4
3995,28.5
3997,33.6
3999,30.0
4001,33.9
4002,7.5
4004,33.6
4010,18.8
4013,18.5
4018,29.1
4019,32.5
4024,10.8
4025,26.2
4029,34.2
4030,14.0
4033,11.1
4034,10.7
4035,51.9
4037,30.9
4038,10.7
4039,33.4
4041,16.7
4042,11.9
4043,8.5
4045,30.1
4046,-4.7
4047,10.0
4048,13.6
4052,18.8
4055,35.3
4056,33.4
4058,5.2
4059,49.3
4060,11.9
4067,22.4
4070,33.9
4072,28.0
4074,28.4
4075,15.1
4076,6.9
4079,32.3
4080,24.1
4081,28.8
4087,24.0
4090,35.6
4092,15.9
4094,15.1
4095,26.7
4099,11.8
4104,8.2
4105,23.7
4107,8.9
4108,26.7
4109,35.7
4114,44.2
4118,20.3
4120,21.8
4124,7.7
4126,-7.2
4128,32.7
4132,8.7
4133,17.0
4134,15.8
4135,6.5
4137,51.9
4139,35.2
4142,22.5
4144,18.3
4145,8.9
4148,18.3
4149,33.9
4152,18.0
4153,17.2
4155,15.3
4157,10.3
4160,33.9
4161,31.8
4162,22.1
4166,14.4
4168,35.3
4171,21.0
4174,23.2
4180,13.2
4182,28.2
4183,13.3
4184,23.2
4188,5.7
4195,49.3
4200,27.4
4201,20.7
4206,-9.8
4209,21.9
4211,14.3
4214,5.1
4217,49.3
4218,28.2
4222,35.8
4223,28.4
4224,31.2
4229,33.9
4230,5.7
4232,6.4
4233,5.3
4234,27.2
4240,31.3
4241,8.2
4242,34.8
4246,31.2
4250,23.4
4252,15.9
4253,10.1
4254,28.9
4255,33.0
4258,29.1
4259,34.3
4261,32.3
4263,8.2
4270,12.4
4271,6.0
4274,41.6
4276,13.0
4278,22.7
4279,6.1
4280,12.0
4282,32.9
4283,15.8
4285,-7.2
4286,11.0
4287,11.4
4288,5.2
4296,54.5
4297,10.2
4300,16.1
4301,6.3
4302,30.1
4303,33.1
4305,30.0
4306,15.7
4307,33.9
4308,35.2
4311,8.5
4314,32.4
4315,12.0
4316,15.5
4320,33.9
4323,15.2
4324,27.3
4325,32.8
4326,12.0
4327,17.5
4328,20.6
4329,22.2
4330,22.4
4331,21.0
4332,26.5
4334,11.5
4335,11.0
4336,29.0
4339,11.0
4340,10.0
4341,31.3
4342,13.3
4344,17.2
4348,10.1
4349,18.2
4350,5.2
4351,21.7
4353,15.8
4354,46.8
4360,28.1
4363,21.7
4364,25.0
4365,-7.2
4366,8.8
4367,30.8
4369,29.4
4371,28.3
4372,7.8
4375,32.3
4376,54.5
4377,6.8
4379,29.2
4381,28.3
4382,17.2
4387,33.1
4388,33.9
4389,24.0
4390,24.1
4391,34.5
4393,8.7
4394,12.5
4396,20.4
4397,11.1
4399,19.9
4400,31.3
4402,14.6
4403,16.5
4404,10.0
4407,33.1
4409,16.9
4410,23.5
4411,18.5
4416,31.9
4422,8.2
4423,24.9
4428,22.6
4432,31.3
4433,33.0
4434,15.6
4437,35.6
4438,8.0
4440,9.1
4441,17.3
4444,-2.1
4448,7.4
4449,12.1
4451,19.9
4454,12.2
4456,57.1
4458,17.4
4465,34.3
4466,31.5
4467,33.9
4470,13.5
4475,14.9
4477,25.7
4478,36.5
4484,20.8
4486,33.5
4488,12.8
4490,21.0
4493,8.2
4494,33.1
4495,26.7
4498,32.6
4499,18.2
4501,13.3
4503,18.9
4504,28.8
4505,5.8
4512,41.6
4516,22.7
4518,9.9
4522,28.0
4525,-7.2
4530,21.5
4531,13.3
4532,32.1
4533,13.4
4534,10.9
4535,26.9
4536,54.5
4537,6.9
4541,26.4
4542,31.7
4543,16.0
4544,14.9
4546,13.4
4547,33.9
4548,27.3
4549,9.3
4550,23.0
4554,8.3
4555,12.4
4558,33.9
4560,31.1
4562,21.0
4563,18.7
4564,33.4
4566,19.3
4567,9.3
4569,19.5
4570,18.5
4571,35.2
4572,16.6
4573,28.0
4576,31.7
4578,9.8
4580,7.9
4581,10.8
4582,21.9
4583,27.0
4584,12.9
4585,29.7
4587,15.0
4588,33.9
4589,29.5
4591,23.3
4593,49.3
4594,27.8
4595,35.0
4598,14.4
4599,21.8
4601,20.3
4602,18.4
4603,24.7
4604,-9.8
4607,30.7
4609,11.1
4610,11.5
4612,12.3
4613,10.3
4615,23.3
4616,51.9
4617,22.3
4620,16.0
4621,16.1
4622,24.1
4624,6.8
4627,33.9
4630,15.5
4631,27.2
4635,25.6
4637,34.8
4638,31.3
4645,13.5
4649,15.9
4650,32.4
4653,15.3
4656,20.6
4657,29.3
4659,27.8
4661,21.4
4662,8.2
4663,30.7
4665,21.8
4666,35.2
4667,14.9
4668,18.6
4669,29.6
4671,9.2
4672,39.1
4673,29.4
4674,5.6
4677,20.7
4679,17.3
4681,8.9
4682,23.1
4683,-7.2
4685,10.2
4686,14.5
4687,11.7
4688,29.2
4690,32.1
4691,27.9
4692,7.5
4694,23.2
4695,54.5
4699,10.2
4700,9.9
4702,10.7
4703,15.9
4706,33.9
4711,28.4
4712,21.5
4713,15.9
4714,29.7
4715,33.9
4716,17.6
4717,28.5
4718,36.5
4720,35.7
4723,18.9
4724,22.1
4726,10.8
4727,28.6
4728,32.3
4729,21.0
4731,25.0
4734,7.8
4735,34.3
4739,29.6
4741,13.3
4744,12.6
4746,13.5
4747,13.9
4750,22.8
4751,23.4
4752,46.8
4754,29.4
4756,23.8
4757,25.3
4759,17.2
4761,30.8
4763,-7.2
4764,18.7
4765,9.2
4767,17.4
4769,13.1
4770,30.8
4772,15.6
4774,51.9
4776,31.0
4777,34.8
4778,16.2
4779,11.0
4780,7.1
4785,30.9
4786,25.1
4787,33.9
4789,5.6
4792,12.2
4798,33.9
4799,7.3
4802,27.9
4805,7.6
4809,18.5
4811,11.8
4814,16.5
4815,11.2
4816,24.2
4817,9.2
4818,14.2
4819,19.4
4820,10.8
4821,7.7
4822,23.3
4827,16.9
4828,5.2
4829,6.5
4831,34.9
4832,51.9
4834,33.9
4835,9.5
4836,20.1
4838,6.2
4839,17.4
4842,17.4
4843,0.5
4844,33.6
4845,28.2
4846,30.8
4847,6.7
4848,35.2
4850,32.0
4851,17.1
4853,11.8
4854,54.5
4855,21.3
4857,34.1
4858,5.3
4859,22.7
4860,12.1
4861,10.4
4863,13.4
4866,33.9
4871,7.8
4872,30.6
4873,25.4
4874,31.6
4875,25.9
4877,39.1
4880,11.4
4882,31.9
4883,11.1
4885,17.7
4888,21.0
4889,5.4
4891,34.0
4893,24.1
4894,13.8
4896,7.9
4898,18.5
4899,15.9
4902,9.3
4903,11.2
4904,8.1
4906,15.8
4909,32.9
4911,41.6
4917,13.9
4918,33.4
4919,11.1
4921,10.5
4922,19.6
4923,-7.2
4927,32.7
4930,21.2
4931,19.8
4934,54.5
4935,18.0
4936,33.5
4937,6.0
4939,31.6
4943,11.5
4945,33.9
4946,12.8
4949,14.1
4950,24.3
4952,6.4
4954,13.6
4957,33.9
4958,18.3
4960,7.2
4961,15.2
4963,15.5
4966,20.9
4968,18.5
4969,18.7
4970,35.9
4973,30.9
4975,20.3
4979,10.8
4980,24.1
4982,10.9
4985,14.3
4987,10.7
4989,32.3
4992,49.3
4993,13.9
4995,11.8
4996,14.5
4997,28.9
5003,-9.8
5006,7.4
5007,20.4
5008,11.8
5010,15.7
5013,29.2
5014,51.9
5018,29.7
5019,20.5
5020,17.1
5021,12.9
5025,36.5
5035,22.7
5036,35.9
5037,31.3
5039,10.1
5041,32.1
5045,29.0
5047,16.5
5048,15.9
5049,12.0
5057,31.1
5059,9.2
5060,8.2
5069,22.3
5070,39.1
5076,6.3
5077,26.3
5078,10.4
5079,21.0
5080,27.8
5081,13.3
5082,-7.2
5083,25.2
5087,35.4
5088,5.1
5090,15.5
5093,54.5
5094,20.5
5100,15.5
5101,32.5
5102,19.9
5104,31.3
5105,34.3
5109,10.4
5111,17.1
5112,13.6
5113,15.0
5115,33.9
5116,23.3
5117,5.5
5121,29.7
5122,23.0
5124,11.8
5125,21.5
5128,21.0
5131,13.1
5134,18.2
5137,14.4
5138,31.2
5139,13.3
5143,24.7
5146,27.8
5149,14.1
5150,46.8
5151,19.1
5153,34.6
5161,-9.8
5168,21.2
5169,13.6
5170,19.2
5173,51.9
5175,17.3
5181,16.6
5185,33.9
5189,21.8
5191,19.0
5195,25.2
5196,31.3
5197,31.5
5199,32.2
5202,12.9
5205,17.8
5207,19.5
5208,18.5
5209,26.1
5219,10.8
5220,17.0
5221,12.2
5223,22.2
5228,30.1
5230,51.9
5232,34.9
5233,7.1
5235,25.4
5236,32.4
5237,7.7
5239,16.6
5240,21.0
5241,-2.1
5243,23.9
5247,6.0
5249,6.9
5251,19.0
5252,33.7
5253,10.2
5254,49.3
5256,31.1
5257,5.3
5259,21.0
5262,15.4
5263,26.6
5264,25.1
5265,33.9
5267,31.0
5268,16.9
5269,14.0
5271,12.3
5275,17.8
5276,28.8
5277,32.4
5279,6.0
5281,32.9
5283,12.1
5284,12.7
5287,13.3
5295,13.3
5296,18.2
5297,20.8
5299,8.2
5301,11.5
5302,17.3
5303,25.0
5306,25.6
5309,39.1
5316,5.7
5317,17.5
5318,26.7
5319,32.5
5320,8.7
5321,-7.2
5323,33.9
5325,10.7
5327,10.7
5329,17.7
5331,31.6
5332,51.9
5335,33.2
5336,24.9
5337,29.1
5341,24.0
5342,28.9
5343,19.0
5344,33.9
5349,25.1
5350,18.4
5351,11.8
5354,28.6
5355,33.9
5361,26.0
5362,30.1
5363,6.4
5365,19.6
5366,21.0
5367,11.4
5368,17.9
5369,14.4
5370,30.2
5371,26.6
5374,26.5
5375,31.9
5378,10.8
5382,20.6
5383,19.9
5386,17.4
5389,28.0
5390,49.3
5393,14.8
5396,35.8
5397,15.0
5399,5.7
5400,25.8
5401,-9.8
5405,14.4
5408,9.3
5409,30.7
5411,26.5
5412,51.9
5413,6.8
5414,25.1
5417,22.4
5418,28.7
5419,28.7
5421,21.9
5424,33.9
5427,17.4
5430,27.4
5432,5.9
5434,17.1
5435,31.3
5437,10.8
5438,6.9
5439,7.2
5441,28.7
5446,15.9
5447,22.9
5449,34.8
5455,32.8
5458,8.2
5461,5.5
5462,10.9
5465,30.1
5467,23.0
5469,39.1
5473,28.8
5475,20.8
5476,24.1
5480,-7.2
5481,25.9
5482,22.6
5483,21.6
5488,10.0
5490,8.7
5491,54.5
5494,9.8
5497,26.8
5499,34.9
5500,28.9
5501,29.0
5502,33.9
5504,12.2
5507,7.8
5508,27.9
5509,33.6
5512,21.6
5514,33.9
5515,30.5
5516,14.5
5517,13.1
5518,17.6
5519,14.1
5524,5.9
5526,21.0
5528,27.3
5529,23.3
5531,26.3
5532,25.6
5533,35.1
5534,7.7
5537,10.8
5539,28.9
5540,34.7
5541,14.4
5543,35.7
5544,23.6
5547,5.6
5548,13.8
5549,46.8
5551,29.0
5552,23.9
5555,18.0
5556,5.8
5557,16.8
5558,10.6
5559,24.1
5560,-7.2
5563,30.4
5565,18.6
5567,5.1
5571,54.5
5572,13.0
5574,23.8
5575,10.0
5578,36.0
5580,12.2
5583,36.5
5585,33.3
5587,28.0
5589,13.6
5590,29.4
5591,30.2
5594,26.6
5595,31.3
5601,29.3
5605,26.5
5606,18.5
5607,30.5
5609,7.3
5611,27.5
5613,8.5
5614,19.6
5616,31.7
5617,10.8
5620,5.2
5623,24.7
5624,34.6
5625,13.4
5628,51.9
5630,11.9
5631,8.5
5632,32.4
5633,21.4
5635,31.8
5636,28.5
5638,33.6
5639,8.2
5640,-4.7
5641,25.2
5642,12.8
5650,28.9
5652,51.9
5654,33.6
5655,25.4
5656,32.9
5657,25.3
5659,7.9
5661,5.0
5663,33.9
5664,34.1
5667,29.0
5668,8.5
5671,6.7
5672,23.6
5675,28.8
5676,9.8
5679,24.6
5680,6.3
5681,32.3
5682,11.3
5684,20.9
5685,21.7
5686,15.9
5687,21.0
5691,32.8
5692,34.8
5693,7.0
5694,9.9
5695,9.7
5697,5.6
5698,10.1
5699,34.3
5701,22.1
5704,25.2
5706,28.9
5707,41.6
5708,30.8
5710,31.1
5711,15.1
5712,34.3
5713,25.5
5715,5.6
5716,9.6
5720,-4.7
5724,20.7
5725,23.0
5726,15.5
5728,22.5
5729,24.9
5730,19.5
5731,54.5
5736,13.5
5737,7.3
5740,21.7
5742,33.9
5744,18.1
5745,23.4
5746,8.5
5747,23.6
5749,32.7
5751,31.6
5753,36.5
5754,10.3
5755,19.6
5764,17.1
5765,21.0
5766,5.5
5767,6.0
5769,9.1
5771,5.5
5772,24.4
5773,19.1
5775,24.7
5776,13.3
5777,29.9
5780,35.8
5781,18.1
5784,25.8
5785,32.4
5786,13.7
5788,49.3
5791,11.8
5793,29.9
5795,16.8
5799,-9.8
5800,25.2
5801,24.9
5805,15.4
5807,21.2
5809,30.5
5810,20.0
5811,51.9
5813,5.2
5815,10.5
5818,27.8
5819,14.2
5820,25.5
5822,33.9
5823,25.4
5825,14.2
5827,25.4
5830,16.6
5833,31.3
5835,17.6
5837,5.6
5839,7.8
5843,33.7
5844,18.5
5845,34.7
5848,19.2
5849,12.7
5851,10.7
5853,33.2
5855,22.7
5856,17.6
5857,8.2
5859,30.3
5860,26.8
5862,12.7
5866,16.7
5867,39.1
5870,28.6
5871,5.0
5876,33.5
5877,14.1
5878,-7.2
5880,16.6
5881,9.1
5882,28.7
5884,26.4
5889,6.3
5890,57.1
5891,16.0
5894,26.7
5895,18.2
5896,20.5
5897,7.5
5898,21.5
5901,33.9
5903,18.6
5905,16.4
5907,34.2
5908,26.1
5910,35.1
5911,32.1
5912,33.9
5913,30.6
5915,13.4
5919,32.2
5923,20.8
5924,21.0
5926,9.6
5927,15.9
5929,27.2
5930,19.0
5934,20.5
5936,13.3
5937,21.1
5940,13.6
5942,27.1
5946,17.7
5947,46.8
5949,36.0
5951,34.8
5956,12.2
5957,6.2
5958,-9.8
5959,17.5
5960,19.4
5961,29.0
5962,35.1
5969,51.9
5970,17.6
5971,23.1
5975,9.0
5981,33.9
5982,23.0
5983,22.6
5989,20.0
5990,33.3
5991,32.5
5993,31.3
5995,33.1
6000,9.2
6001,6.6
6002,13.0
6003,23.7
6004,15.9
6005,17.0
6006,10.1
6008,17.7
6011,24.2
6015,5.3
6016,10.8
6019,17.9
6020,7.3
6024,19.1
6026,33.9
6027,51.9
6028,23.1
6030,10.5
6033,32.7
6036,16.7
6037,35.5
6038,-4.7
6041,33.2
6043,34.4
6046,25.4
6047,9.8
6049,33.4
6050,49.3
6051,23.7
6052,34.5
6053,22.0
6054,11.7
6056,28.3
6057,27.8
6058,31.8
6059,17.4
6060,21.0
6062,31.3
6065,27.0
6073,28.8
6074,19.0
6076,10.8
6078,33.4
6079,18.4
6081,14.3
6084,15.9
6085,12.7
6087,21.3
6088,6.5
6089,34.4
6091,30.0
6095,8.2
6098,32.8
6099,30.2
6100,8.0
6102,11.2
6103,21.4
6105,10.9
6106,41.6
6108,28.7
6109,7.6
6110,35.7
6112,17.5
6113,5.9
6115,32.8
6116,14.0
6117,6.5
6118,-9.8
6121,35.3
6122,26.7
6123,33.8
6124,9.6
6125,24.1
6126,28.2
6127,7.1
6128,29.6
6129,51.9
6131,28.0
6133,25.5
6136,31.4
6138,32.0
6140,33.9
6141,27.7
6144,22.5
6145,11.7
6149,8.7
6150,11.3
6152,33.9
6154,30.2
6155,20.4
6160,9.7
6163,18.5
6164,24.7
6166,21.9
6170,9.1
6171,23.3
6174,13.3
6175,21.7
6176,25.0
6178,30.8
6180,16.9
6181,10.0
6185,29.4
6186,34.1
6187,49.3
6189,9.2
6190,33.2
6198,-9.8
6200,15.2
6201,35.1
6205,25.1
6206,6.7
6207,10.7
6209,51.9
6212,15.4
6213,12.2
6215,22.7
6220,33.9
6223,20.0
6226,18.2
6227,23.9
6229,29.8
6231,24.3
6232,31.3
6234,13.1
6236,33.1
6237,17.4
6238,33.4
6243,18.5
6244,22.6
6247,35.3
6249,29.1
6252,33.6
6255,10.8
6256,35.3
6257,6.1
6259,35.6
6260,16.5
6261,21.6
6266,54.5
6267,32.3
6270,7.6
6273,25.4
6276,12.6
6277,34.0
6278,5.6
6281,18.9
6282,17.7
6283,8.1
6287,21.3
6288,57.1
6289,22.7
6290,35.3
6293,9.7
6298,28.7
6299,33.9
6308,33.4
6310,33.9
6314,24.9
6316,28.9
6317,31.3
6319,5.2
6320,12.7
6321,34.1
6322,20.2
6323,21.0
6324,8.7
6325,10.1
6328,12.0
6330,7.2
6334,13.3
6343,11.0
6344,25.5
6345,44.2
6346,14.8
6348,17.5
6349,5.4
6350,20.4
6351,20.4
6352,24.9
6353,7.3
6354,35.7
6356,-7.2
6358,15.8
6360,12.0
6368,51.9
6371,7.7
6373,22.8
6374,25.6
6375,34.9
6379,36.5
6381,9.5
6382,15.3
6384,24.3
6390,30.9
6391,31.3
6393,23.5
6394,7.2
6395,11.1
6401,20.0
6402,11.5
6403,18.5
6406,6.2
6412,14.2
6413,10.7
6414,10.8
6415,14.1
6417,35.9
6419,13.5
6421,18.9
6422,22.0
6424,5.0
6425,49.3
6428,13.4
6429,18.4
6431,18.8
6432,34.7
6434,17.9
6435,9.0
6436,-4.7
6437,12.0
6438,35.6
6439,33.6
6442,32.4
6446,26.4
6447,19.6
6448,15.0
6449,49.3
6450,29.1
6452,23.9
6454,29.4
6455,24.5
6457,35.3
6458,26.3
6459,31.5
6460,33.9
6461,35.2
6462,7.8
6466,26.5
6467,34.8
6471,31.3
6476,10.2
6482,15.9
6483,21.7
6485,15.8
6490,13.3
6491,16.9
6492,35.1
6493,6.1
6494,8.2
6496,30.2
6497,22.3
6499,16.0
6500,5.0
6501,15.7
6502,28.0
6503,27.6
6504,41.6
6505,30.0
6506,14.9
6508,30.9
6509,13.1
6514,27.3
6515,24.2
6516,-7.2
6517,25.7
6518,12.7
6519,25.7
6520,33.6
6525,6.5
6526,20.2
6527,19.7
6528,51.9
6529,6.6
6534,5.4
6539,33.9
6540,12.6
6541,30.7
6543,5.4
6544,14.7
6546,32.7
6547,8.6
6548,13.6
6550,36.5
6551,5.6
6552,28.6
6554,23.7
6555,29.4
6556,21.9
6557,10.5
6560,29.9
6561,18.5
6565,5.7
6566,11.5
6568,16.9
6571,28.8
6572,28.8
6573,10.8
6574,27.9
6575,6.2
6576,20.9
6582,33.4
6584,21.9
6585,49.3
6587,17.4
6588,34.4
6589,24.5
6590,26.5
6592,5.7
6594,18.8
6595,21.8
6596,-9.8
6599,9.7
6601,15.0
6606,23.9
6607,51.9
6609,15.5
6610,35.1
6613,16.8
6615,26.5
6616,27.0
6617,11.4
6619,33.9
6621,11.3
6622,12.3
6623,27.3
6624,9.1
6626,6.7
6627,10.9
6628,35.5
6629,14.3
6630,31.3
6633,31.4
6634,20.6
6635,20.7
6639,6.7
6640,28.8
6641,15.9
6647,18.4
6648,6.3
6649,27.3
6650,23.8
6651,20.0
6652,35.0
6653,8.2
6658,23.5
6660,6.3
6661,26.1
6662,8.6
6663,26.7
6664,39.1
6665,7.9
6666,31.0
6670,30.5
6673,24.5
6675,-7.2
6680,35.4
6684,31.8
6686,54.5
6687,7.4
6690,11.2
6692,31.5
6696,9.5
6697,31.3
6698,17.1
6699,8.1
6700,15.4
6703,13.5
6704,15.5
6705,6.5
6706,10.1
6707,17.4
6709,33.9
6710,10.8
6712,8.7
6713,23.4
6716,17.5
6717,14.2
6718,19.1
6719,26.2
6720,35.6
6721,23.6
6722,9.5
6723,14.7
6726,23.6
6727,19.6
6728,5.2
6730,19.8
6732,13.3
6733,13.5
6735,27.0
6737,14.2
6738,27.5
6739,34.7
6741,6.8
6743,21.5
6744,46.8
6748,32.6
6752,28.9
6753,33.5
6755,-7.2
6761,32.8
6763,7.5
6766,51.9
6768,28.3
6771,14.0
6774,28.1
6776,30.5
6777,33.9
6782,22.7
6785,27.6
6787,22.9
6790,31.3
6792,18.1
6794,29.6
6795,29.9
6796,35.9
6797,9.1
6801,18.5
6803,17.6
6809,12.7
6810,26.8
6811,22.9
6812,10.8
6814,33.6
6815,16.3
6816,35.3
6823,51.9
6826,9.3
6827,16.9
6828,27.9
6831,14.3
6834,9.0
6835,-4.7
6838,20.1
6840,22.2
6841,18.9
6842,11.7
6845,17.0
6846,51.9
6850,17.4
6852,15.2
6854,30.2
6857,17.2
6858,33.9
6859,6.3
6862,17.3
6863,18.5
6864,5.3
6866,6.4
6868,27.7
6870,31.3
6872,32.5
6874,7.7
6881,15.9
6882,24.6
6884,13.2
6885,5.2
6886,21.9
6887,8.7
6888,31.6
6891,23.2
6892,8.2
6894,23.4
6895,35.6
6902,41.6
6905,6.8
6906,28.0
6908,24.8
6910,9.4
6911,9.2
6914,23.9
6915,-4.7
6916,15.5
6917,26.3
6921,28.8
6924,19.3
6925,16.5
6926,54.5
6927,19.5
6931,23.5
6932,12.2
6936,8.5
6937,33.9
6940,25.1
6941,10.8
6942,17.2
6943,6.5
6946,27.2
6948,33.9
6954,18.3
6956,9.1
6958,35.0
6959,15.8
6960,23.6
6961,30.3
6963,20.3
6965,14.2
6967,15.0
6968,30.2
6969,35.4
6970,23.3
6971,10.8
6976,9.2
6978,14.9
6979,28.2
6980,34.8
6981,13.7
6982,13.8
6983,49.3
6984,15.2
6985,20.9
6987,8.9
6988,5.5
6989,22.4
6994,-9.8
6995,27.3
6998,23.5
6999,15.8
7000,15.9
7001,11.6
7002,32.5
7003,31.2
7006,51.9
7007,28.6
7009,17.3
7011,17.6
7012,31.9
7014,23.5
7015,26.3
7016,9.6
7017,33.9
7019,20.3
7021,20.3
7022,14.8
7024,17.6
7025,5.4
7026,35.1
7028,31.3
7033,17.7
7034,30.1
7036,31.1
7037,14.6
7038,18.1
7039,18.9
7040,15.9
7041,14.2
7042,31.8
7044,9.8
7048,18.1
7052,8.2
7055,33.6
7058,5.5
7060,11.1
7061,29.8
7062,39.1
7066,6.9
7071,20.6
7073,-4.7
7074,5.8
7076,16.6
7077,11.2
7080,5.1
7081,18.7
7084,26.1
7085,54.5
7087,24.7
7091,7.8
7093,20.4
7096,31.3
7099,7.9
7101,18.1
7103,15.8
7104,18.6
7105,6.9
7107,36.5
7108,9.0
7109,12.9
7111,7.3
7115,12.6
7117,15.1
7119,23.6
7120,18.7
7122,13.2
7131,13.3
7132,27.0
7134,35.0
7135,27.7
7137,16.3
7138,8.0
7139,30.2
7140,26.5
7142,44.2
7146,35.6
7149,19.5
7150,6.7
7153,-9.8
7155,27.4
7157,8.8
7159,33.9
7164,51.9
7165,7.5
7167,24.9
7168,21.3
7174,22.8
7175,17.3
7176,36.5
7177,34.9
7182,34.0
7184,31.3
7185,17.5
7188,31.3
7192,11.7
7196,15.2
7197,32.4
7198,22.2
7199,21.0
7200,11.0
7202,15.0
7203,23.8
7204,13.2
7205,25.8
7206,19.3
7208,22.0
7209,5.2
7211,10.8
7212,26.3
7214,6.5
7215,10.8
7216,12.5
7217,28.1
7218,19.8
7219,19.7
7220,27.7
7221,21.8
7222,51.9
7225,12.6
7231,5.2
7232,24.9
7233,-4.7
7234,22.5
7237,10.1
7238,23.7
7239,18.4
7241,12.5
7242,10.9
7243,30.3
7244,51.9
7245,26.4
7246,23.7
7247,19.9
7252,29.4
7253,9.1
7257,36.5
7259,22.5
7260,31.7
7263,14.0
7268,31.3
7270,6.2
7271,31.9
7275,33.6
7276,15.0
7277,28.7
7279,15.9
7280,30.3
7286,34.0
7287,32.8
7288,19.3
7289,24.1
7290,8.2
7291,23.4
7293,10.8
7296,10.1
7297,19.7
7298,12.3
7299,33.9
7301,41.6
7302,9.9
7306,27.3
7308,31.9
7312,25.2
7313,-7.2
7314,6.4
7316,12.4
7321,10.7
7322,22.8
7324,51.9
7325,12.8
7329,35.7
7330,7.0
7331,24.1
7335,31.3
7336,12.1
7337,29.7
7340,21.0
7342,14.1
7343,11.6
7345,14.2
7347,33.9
7350,25.5
7353,23.7
7358,18.5
7362,21.3
7364,32.6
7365,5.3
7367,25.9
7368,15.3
7369,13.3
7372,15.0
7373,7.6
7374,31.1
7376,26.4
7378,8.9
7379,17.1
7382,49.3
7383,33.4
7384,18.7
7385,18.5
7386,26.4
7389,24.3
7391,11.3
7392,34.7
7393,-9.8
7395,8.9
7397,5.1
7398,30.8
7400,29.4
7402,35.5
7404,51.9
7406,11.6
7407,9.8
7408,29.0
7413,18.4
7414,24.4
7415,33.9
7416,29.2
7417,33.3
7419,20.3
7421,19.5
7424,11.8
7425,34.1
7427,31.3
7428,17.8
7434,27.5
7435,26.7
7436,6.0
7438,18.5
7442,17.4
7449,33.8
7450,10.8
7451,27.6
7457,5.9
7460,29.9
7461,51.9
7462,5.1
7463,22.3
7464,6.6
7466,16.7
7468,6.1
7469,24.0
7471,10.3
7473,3.0
7478,20.6
7479,14.4
7481,24.5
7483,54.5
7484,7.6
7485,30.5
7486,24.8
7487,29.5
7488,14.2
7489,6.7
7490,32.8
7492,13.4
7494,31.3
7497,25.9
7499,31.9
7500,19.7
7503,28.5
7505,36.5
7515,20.7
7518,21.0
7520,18.3
7521,18.0
7523,16.5
7528,33.7
7529,15.9
7531,31.1
7532,18.3
7533,10.0
7535,31.1
7536,12.6
7539,17.5
7540,46.8
7545,30.0
7550,25.5
7552,-9.8
7554,16.1
7557,31.3
7558,30.1
7563,54.5
7565,17.5
7568,34.6
7574,33.9
7575,13.1
7577,17.8
7578,7.2
7580,22.8
7581,13.3
7585,23.4
7586,33.9
7587,25.0
7594,11.5
7595,21.2
7598,18.5
7599,11.7
7601,23.2
7603,28.9
7609,10.8
7610,26.1
7611,28.2
7612,31.0
7614,27.0
7615,31.1
7616,23.5
7619,7.4
7620,51.9
7624,23.6
7626,26.9
7628,18.2
7631,-4.7
7632,23.3
7633,24.2
7637,14.8
7641,14.7
7643,49.3
7645,31.9
7646,23.5
7649,29.8
7651,11.4
7652,30.5
7653,29.0
7654,18.5
7655,33.9
7656,11.7
7659,9.1
7660,11.9
7661,23.3
7662,32.7
7665,8.1
7666,28.8
7667,8.1
7668,27.3
7670,23.2
7672,34.0
7675,21.5
7677,15.9
7678,25.2
7679,25.5
7680,33.2
7683,15.2
7685,13.9
7688,33.9
7689,8.2
7690,12.1
7692,5.5
7695,26.7
7696,10.7
7699,41.6
7700,19.0
7701,28.0
7705,35.6
7706,32.1
7707,9.3
7708,11.0
7709,23.3
7710,-4.7
7711,21.5
7712,33.4
7714,34.1
7717,14.3
7718,30.6
7719,33.8
7720,10.0
7723,54.5
7724,17.3
7726,19.3
7727,20.6
7730,20.2
7731,31.3
7732,29.0
7734,33.9
7736,21.3
7737,33.2
7741,9.0
7743,19.0
7745,33.9
7746,24.9
7747,25.1
7748,6.8
7753,25.4
7755,35.1
7756,18.5
7757,14.0
7758,17.0
7762,6.5
7763,26.6
7764,35.6
7765,11.2
7766,27.4
7768,10.8
7769,22.8
7770,16.5
7771,14.5
7772,28.2
7775,22.8
7777,21.6
7778,32.0
7780,46.8
7781,13.4
7783,5.8
7786,26.1
7787,21.0
7788,26.3
7791,-12.4
7793,24.3
7796,22.6
7800,29.7
7801,11.0
7803,46.8
7805,26.0
7806,12.5
7808,5.1
7809,24.2
7811,33.5
7813,9.8
7814,17.2
7815,31.3
7816,8.7
7818,31.0
7821,6.8
7825,32.3
7826,21.0
7827,17.9
7830,16.9
7831,9.1
7833,8.1
7835,15.0
7837,10.8
7838,32.9
7840,27.7
7841,26.2
7844,17.6
7845,13.6
7848,20.5
7849,0.5
7850,33.7
7851,34.4
7855,15.0
7857,28.3
7859,16.1
7860,54.5
7861,20.3
7864,8.1
7865,34.9
7866,12.9
7867,18.4
7868,5.2
7870,6.6
7871,0.5
7872,21.2
7874,15.5
7875,29.4
7876,17.9
7878,21.5
7879,9.1
7880,26.2
7881,51.9
7882,16.1
7886,17.9
7888,15.9
7892,33.9
7896,15.1
7898,9.8
7900,32.6
7902,31.7
7904,33.9
7905,13.1
7911,28.9
7914,23.3
7916,21.0
7917,19.6
7919,14.2
7922,9.5
7923,31.3
7924,11.3
7926,21.4
7927,13.3
7928,33.3
7933,35.9
7935,5.5
7937,29.0
7938,30.9
7939,44.2
7941,30.4
7945,31.9
7946,27.6
7947,19.0
7949,34.7
7950,-9.8
7954,17.7
7955,6.4
7957,24.3
7961,51.9
7964,30.1
7969,13.3
7970,33.4
7971,20.9
7972,33.9
7974,17.7
7975,10.4
7977,29.7
7979,15.3
7981,6.5
7983,24.0
7984,21.6
7985,31.3
7986,5.9
7987,23.9
7988,32.1
7989,28.1
7990,11.6
7991,25.7
7993,5.4
7995,28.9
7996,18.5
7998,24.8
8001,30.5
8003,19.7
8005,20.0
8006,31.2
8007,10.8
8009,30.5
8014,22.9
8015,20.1
8018,49.3
8020,31.1
8022,15.4
8023,9.7
8024,13.3
8025,11.5
8026,17.1
8029,13.4
8030,-7.2
8033,5.4
8034,14.9
8035,6.3
8041,49.3
8044,11.3
8045,28.4
8047,16.7
8051,26.4
8053,31.3
8058,14.3
8059,20.8
8061,35.5
8062,22.8
8064,20.4
8065,28.8
8067,24.8
8068,11.9
8069,12.8
8076,15.9
8077,5.6
8082,15.4
8083,30.7
8084,28.6
8086,6.4
8087,8.2
8090,25.4
8091,18.4
8093,10.2
8094,24.1
8096,13.4
8097,41.6
8100,25.2
8103,30.1
8104,6.4
8105,12.2
8109,-4.7
8110,7.8
8112,33.3
8114,23.6
8116,28.6
8117,15.3
8118,13.7
8119,31.1
8120,5.5
8121,51.9
8122,10.9
8123,14.7
8125,6.3
8127,8.0
8128,28.1
8131,25.6
8132,33.9
8134,19.6
8135,21.5
8136,19.3
8137,23.9
8139,34.6
8143,33.9
8144,8.5
8151,14.6
8152,20.9
8153,18.2
8154,13.3
8155,21.0
8156,33.2
8162,21.2
8163,9.9
8164,5.1
8165,21.2
8166,10.8
8167,27.4
8168,31.0
8170,14.9
8171,24.9
8172,32.1
8176,26.6
8177,49.3
8178,30.0
8180,13.6
8183,22.7
8186,9.9
8187,25.0
8189,-9.8
8190,11.8
8198,35.1
8199,18.3
8201,49.3
8203,27.8
8206,16.2
8207,22.0
8208,27.2
8209,28.5
8211,10.1
8212,33.9
8213,18.0
8217,19.9
8222,33.8
8223,31.3
8224,11.5
8225,31.3
8226,18.7
8228,26.7
8234,16.9
8235,15.9
8239,10.6
8241,23.3
8243,25.4
8244,24.9
8245,26.1
8246,16.5
8247,10.8
8250,35.4
8251,21.4
8255,32.7
8257,28.7
8258,51.9
8260,19.5
8262,20.5
8263,14.1
8266,9.5
8267,16.8
8269,0.5
8273,16.2
8275,15.5
8280,54.5
8282,14.7
8284,24.3
8288,23.4
8289,5.7
8291,31.3
8294,18.0
8295,9.7
8296,9.1
8297,27.5
8300,11.8
8302,33.9
8303,19.7
8305,19.0
8307,20.6
8308,23.0
8312,35.4
8313,32.4
8314,21.0
8317,12.1
8319,26.1
8321,22.8
8323,6.1
8324,30.2
8326,13.3
8329,28.7
8331,18.3
8332,30.5
8334,32.1
8335,27.1
8337,46.8
8340,24.5
8342,18.9
8343,25.8
8344,22.1
8345,30.1
8347,35.5
8348,-9.8
8350,23.0
8352,26.8
8354,7.2
8356,29.5
8359,54.5
8360,18.0
8362,14.7
8363,11.3
8364,21.3
8367,35.7
8368,32.2
8371,33.9
8372,21.9
8374,24.4
8376,6.2
8378,19.0
8382,11.5
8383,31.3
8384,20.9
8386,15.9
8388,7.0
8389,20.3
8390,6.8
8391,23.0
8394,18.5
8396,16.5
8397,35.6
8400,28.6
8403,24.4
8406,10.8
8408,10.2
8411,30.6
8415,11.5
8417,51.9
8418,13.2
8419,20.9
8421,17.7
8422,21.3
8423,31.7
8424,34.7
8427,26.2
8428,-7.2
8439,49.3
8442,17.4
8444,9.7
8447,23.4
8448,26.1
8449,10.6
8450,34.0
8451,29.4
8452,33.9
8454,23.7
8455,24.6
8456,15.3
8457,7.7
8460,32.2
8462,22.0
8463,28.8
8464,9.8
8467,22.6
8468,29.5
8473,21.2
8474,15.9
8475,17.0
8478,25.3
8479,28.6
8480,20.8
8481,9.1
8482,30.1
8484,25.1
8485,5.6
8486,20.1
8487,33.4
8488,17.0
8489,28.6
8490,34.9
8492,6.1
8493,8.7
8495,19.1
8496,39.1
8498,9.1
8502,19.9
8503,9.5
8504,22.2
8507,-7.2
8510,17.0
8511,23.8
8512,12.2
8513,13.5
8514,26.9
8515,25.5
8519,54.5
8521,31.3
8522,25.5
8524,23.8
8525,19.1
8526,6.4
8528,27.1
8530,33.9
8531,6.4
8534,20.2
8535,19.3
8538,24.0
8540,31.7
8541,29.3
8542,31.3
8543,31.8
8544,35.9
8545,10.9
8546,16.0
8549,18.8
8553,18.5
8554,29.8
8555,18.7
8556,27.9
8557,28.7
8564,13.3
8565,31.0
8567,25.4
8570,32.3
8572,8.1
8576,49.3
8577,15.2
8578,24.6
8580,26.1
8582,28.8
8584,18.6
8586,33.1
8588,-9.8
8589,16.1
8595,25.0
8596,21.3
8599,51.9
8600,24.2
8601,25.9
8602,27.9
8606,21.0
8610,33.9
8611,27.0
8613,13.7
8616,6.4
8617,16.4
8619,20.8
8620,11.5
8621,35.1
8622,31.3
8625,14.7
8628,14.6
8629,20.0
8633,15.9
8634,6.6
8635,33.5
8636,8.2
8638,9.7
8639,12.0
8640,25.1
8641,15.0
8642,6.5
8645,8.2
8646,17.4
8648,35.7
8651,8.5
8652,24.5
8655,36.5
8656,17.2
8660,34.0
8662,21.5
8665,7.3
8667,-4.7
8668,6.2
8669,24.8
8674,32.2
8675,19.0
8677,18.8
8678,54.5
8681,6.7
8685,32.4
8688,12.2
8689,31.3
8690,35.2
8692,29.9
8695,24.5
8696,16.1
8699,20.9
8700,36.5
8701,13.2
8705,35.3
8709,22.8
8711,14.1
8712,33.4
8713,21.0
8715,35.7
8717,30.4
8718,18.1
8719,31.5
8722,34.6
8723,30.2
8724,13.3
8729,7.1
8730,11.8
8731,9.2
8733,14.9
8735,44.2
8740,11.8
8743,20.5
8744,25.5
8745,31.9
8746,16.0
8747,-9.8
8749,34.3
8753,16.3
8756,26.9
8758,51.9
8764,10.0
8765,33.2
8769,33.9
8771,25.8
8773,25.5
8775,12.2
8777,20.8
8781,31.3
8783,34.8
8784,29.0
8785,11.5
8787,6.2
8788,22.5
8789,7.8
8792,22.3
8793,21.0
8796,33.6
8797,25.5
8799,24.9
8801,35.9
8802,12.0
8804,10.8
8806,10.4
8807,7.8
8808,31.5
8809,27.8
8812,7.1
8813,15.8
8815,49.3
8816,27.9
8823,21.7
8826,-7.2
8830,23.1
8832,29.7
8835,5.7
8836,19.5
8838,49.3
8840,11.4
8841,14.0
8850,33.9
8851,16.9
8852,19.6
8854,12.9
8855,10.5
8856,8.8
8860,28.0
8861,28.8
8863,22.7
8865,21.9
8866,25.2
8869,33.6
8870,20.1
8871,28.0
8872,15.9
8874,33.6
8875,23.9
8879,18.2
8881,18.7
8884,5.6
8887,15.4
8888,34.4
8889,32.8
8891,7.4
8893,25.6
8894,39.1
8897,17.5
8900,22.1
8902,25.0
8904,34.2
8905,-7.2
8908,32.6
8910,8.1
8913,29.4
8914,14.3
8916,13.5
8918,51.9
8919,19.9
8921,26.7
8923,6.8
8927,23.3
8929,33.9
8930,30.3
8931,11.3
8934,20.1
8936,18.9
8938,5.8
8939,35.9
8940,33.9
8941,23.3
8942,27.3
8943,8.9
8947,17.6
8948,25.6
8951,18.5
8952,35.9
8953,35.1
8954,28.9
8955,5.9
8960,9.7
8961,34.8
8963,13.3
8964,24.7
8969,35.0
8970,28.2
8972,22.8
8974,46.8
8975,25.0
8976,16.9
8977,30.4
8978,8.6
8979,32.6
8981,17.9
8983,19.0
8984,8.8
8986,-9.8
8989,28.1
8992,35.7
8993,17.8
8997,49.3
9003,34.5
9004,5.0
9005,35.9
9007,28.1
9009,33.9
9011,33.4
9014,13.6
9018,30.2
9020,31.3
9022,33.6
9025,9.2
9026,31.3
9031,15.9
9040,9.0
9041,26.1
9042,35.3
9043,8.2
9052,13.3
9053,23.2
9054,36.5
9056,6.2
9057,32.9
9061,11.5
9065,-4.7
9067,18.6
9068,18.1
9069,11.8
9072,18.1
9073,16.1
9076,54.5
9078,28.0
9081,7.9
9082,31.8
9086,24.0
9087,15.1
9088,33.9
9090,24.7
9091,13.6
9093,17.5
9094,13.5
9095,5.8
9097,10.1
9099,33.9
9100,12.6
9102,31.6
9103,6.9
9104,14.4
9106,17.3
9107,16.2
9108,32.3
9109,9.3
9111,21.0
9115,30.1
9119,30.2
9120,8.4
9122,13.3
9124,16.9
9125,20.2
9126,9.0
9128,11.8
9129,22.6
9131,29.3
9132,16.1
9134,44.2
9136,33.0
9137,16.8
9138,24.0
9140,15.4
9142,23.1
9145,-7.2
9153,9.9
9154,10.7
9156,51.9
9159,26.2
9160,16.6
9161,32.3
9164,30.2
9165,14.3
9167,31.3
9169,6.4
9170,11.7
9171,31.6
9172,29.6
9173,30.2
9175,15.0
9176,35.2
9177,28.0
9180,33.9
9184,15.4
9185,7.0
9186,27.4
9190,11.5
9191,18.5
9194,34.0
9201,35.0
9202,10.8
9203,29.2
9205,33.7
9206,12.9
9207,22.0
9208,19.9
9209,10.6
9210,33.2
9211,12.1
9212,5.0
9213,49.3
9214,19.5
9221,12.5
9225,-7.2
9227,12.2
9231,12.8
9232,16.2
9234,16.7
9236,49.3
9241,27.9
9242,7.6
9244,26.3
9245,14.1
9248,33.9
9251,30.7
9252,9.6
9253,7.9
9255,13.1
9256,29.2
9260,28.8
9265,19.2
9266,21.0
9267,23.3
9268,14.8
9270,7.0
9271,15.9
9272,32.1
9274,5.3
9275,5.4
9276,15.0
9279,12.6
9280,20.4
9281,18.5
9282,8.2
9284,7.9
9285,11.0
9288,26.6
9291,29.9
9292,44.2
9296,20.6
9299,6.9
9300,27.4
9302,21.6
9304,-4.7
9305,34.9
9306,7.7
9312,11.4
9316,54.5
9317,7.6
9318,7.9
9319,7.0
9320,12.1
9322,19.9
9323,17.8
9324,24.6
9325,34.3
9326,5.5
9327,33.9
9332,29.8
9338,33.9
9339,7.4
9340,19.1
9341,6.4
9342,25.8
9344,24.6
9347,14.9
9350,18.5
9352,14.3
9353,15.3
9354,19.1
9356,6.6
9359,24.9
9360,25.2
9361,10.8
9363,5.1
9365,31.8
9366,30.5
9367,25.4
9369,12.6
9372,49.3
9375,30.1
9376,7.2
9377,34.2
9382,10.6
9384,-9.8
9385,28.0
9387,5.4
9388,6.0
9390,10.7
9395,6.7
9396,51.9
9398,34.7
9399,18.4
9400,15.4
9401,25.1
9403,34.2
9407,33.9
9408,33.2
9409,5.6
9412,15.1
9415,30.8
9417,10.2
9418,31.3
9419,28.0
9420,8.0
9422,29.4
9423,5.8
9424,17.7
9425,6.1
9430,15.9
9434,14.8
9436,12.9
9437,27.9
9441,8.2
9442,22.6
9443,5.6
9444,35.5
9446,17.5
9447,32.7
9449,11.4
9452,33.9
9453,27.9
9454,9.4
9456,9.2
9460,9.2
9462,6.2
9463,-7.2
9469,35.7
9471,12.2
9473,35.3
9475,54.5
9478,9.0
9479,25.6
9482,6.5
9483,16.7
9486,31.3
9487,25.3
9488,8.0
9490,25.6
9492,24.0
9494,6.4
9495,7.3
9496,28.5
9497,36.5
9498,12.9
9499,14.5
9501,11.9
9503,8.1
9504,12.1
9506,10.4
9508,23.6
9516,10.6
9517,16.7
9518,35.2
9519,29.7
9521,13.3
9522,9.9
9525,27.7
9526,12.9
9527,30.8
9529,17.8
9530,13.8
9531,8.9
9532,44.2
9533,14.4
9537,20.5
9540,14.3
9541,29.9
9543,-7.2
9544,23.9
9545,18.3
9549,5.2
9551,13.2
9552,20.9
9554,51.9
9555,18.3
9556,13.3
9557,28.1
9562,27.6
9565,23.1
9566,33.9
9569,16.1
9571,18.6
9572,19.1
9573,25.8
9574,24.4
9575,31.9
9578,33.9
9579,12.5
9583,25.5
9584,22.1
9586,24.4
9589,18.5
9591,10.5
9592,19.6
9596,12.2
9599,17.5
9600,29.0
9601,10.8
9602,15.4
9603,10.5
9606,16.9
9610,34.8
9611,16.5
9612,49.3
9613,15.3
9614,31.3
9615,13.3
9617,28.7
9619,17.1
9620,9.9
9623,-7.2
9625,29.4
9628,32.0
9633,20.8
9634,49.3
9636,24.2
9640,17.9
9642,14.3
9643,13.3
9644,29.3
9647,33.9
9649,16.5
9654,12.7
9657,31.3
9658,28.8
9662,26.6
9663,9.9
9666,32.2
9667,29.1
9668,34.4
9669,15.9
9670,33.6
9672,17.2
9676,27.3
9677,25.7
9680,5.6
9682,15.5
9683,22.4
9684,26.7
9685,26.7
9687,17.6
9691,41.6
9692,28.6
9694,32.3
9699,22.9
9700,32.5
9702,-7.2
9704,28.2
9706,9.8
9707,11.3
9709,33.2
9710,28.4
9713,17.0
9714,51.9
9716,33.6
9717,9.7
9725,33.9
9726,8.2
9728,19.7
9735,9.9
9736,19.2
9737,33.9
9738,25.0
9742,34.0
9744,34.5
9748,21.0
9751,28.1
9754,22.0
9755,12.0
9759,10.8
9762,13.4
9763,34.1
9766,13.9
9767,22.0
9768,20.5
9769,18.3
9770,25.7
9771,49.3
9772,5.8
9773,29.3
9774,17.2
9775,21.7
9776,14.2
9778,19.6
9783,-9.8
9784,24.8
9785,24.1
9786,28.3
9791,28.5
9792,29.4
9794,51.9
9798,7.4
9800,8.0
9801,31.7
9802,25.9
9803,20.5
9804,8.1
9805,31.3
9806,32.8
9807,21.0
9810,11.1
9813,19.3
9817,28.8
9819,5.9
9821,5.7
9822,30.0
9823,19.7
9824,16.8
9826,19.6
9827,10.1
9828,15.9
9829,30.7
9830,5.1
9836,8.0
9838,21.6
9839,8.2
9847,18.1
9850,36.5
9851,19.9
9853,22.2
9854,27.1
9855,22.2
9856,9.3
9858,27.7
9860,22.8
9861,8.7
9862,-4.7
9864,35.4
9866,35.4
9868,17.3
9872,11.1
9873,54.5
9874,28.8
9876,29.3
9878,18.7
9879,10.7
9880,24.9
9881,31.0
9882,28.2
9883,35.7
9884,33.9
9885,24.6
9886,17.0
9888,26.8
9890,15.7
9894,17.6
9895,36.5
9897,33.4
9898,10.9
9899,8.4
9901,9.3
9902,33.9
9903,31.7
9904,23.2
9906,32.9
9907,23.6
9910,5.4
9912,17.3
9913,22.8
9915,20.7
9918,25.6
9919,13.3
9920,35.8
9921,8.4
9926,24.9
9927,26.8
9928,16.9
9930,44.2
9932,14.1
9933,19.3
9935,24.2
9939,19.0
9940,25.8
9941,17.8
9942,-9.8
9944,32.6
9946,12.0
9948,15.2
9951,23.6
9952,6.0
9953,51.9
9954,34.6
9956,8.3
9959,15.8
9962,29.0
9963,5.9
9964,33.9
9965,17.4
9966,27.3
9971,22.6
9972,13.4
9973,23.1
9975,28.6
9976,31.3
9977,7.5
9979,12.0
9980,13.4
9986,13.4
9988,18.5
9989,19.8
9992,25.6
9996,30.8
9997,25.4
9998,11.4
9999,10.8
10002,26.3
10004,21.5
10005,8.1
10007,6.4
10008,22.5
10010,49.3
10013,29.7
10017,13.2
10020,27.6
10021,34.6
10022,21.0
10024,31.8
10027,20.3
10028,11.7
10029,7.3
10031,12.8
10032,21.9
10033,8.2
10034,5.3
10035,36.5
10038,13.8
10044,25.3
10045,23.3
10046,25.4
10047,28.9
10048,13.3
10052,6.5
10053,14.7
10054,32.9
10056,10.0
10058,33.3
10059,9.7
10060,-2.1
10063,22.4
10064,32.3
10065,31.4
10066,33.7
10067,17.5
10068,21.9
10069,6.0
10072,34.9
10073,51.9
10074,32.2
10075,23.7
10076,12.6
10077,9.5
10079,34.6
10080,28.9
10081,13.0
10085,31.3
10087,32.8
10088,34.0
10090,14.4
10091,13.1
10094,9.8
10096,6.9
10097,13.3
10098,14.9
10100,7.3
10103,6.9
10104,19.8
10105,35.5
10108,8.0
10109,31.0
10110,51.9
10111,33.8
10112,8.1
10118,33.5
10120,16.8
10122,7.5
10123,23.6
10125,29.4
10128,8.1
10129,26.8
10131,7.7
10132,20.4
10135,33.9
10136,11.3
10138,9.2
10139,26.9
10140,23.1
10141,14.6
10142,31.3
10143,5.5
10147,13.3
10150,9.2
10160,-4.7
10167,33.1
10168,25.7
10169,5.1
10170,35.1
10172,51.9
10174,21.1
10175,29.9
10176,7.7
10177,7.9
10178,9.1
10179,21.5
10180,31.4
10182,14.3
10183,9.2
10185,28.8
10186,20.0
10187,26.6
10188,29.0
10190,23.8
10192,35.1
10195,19.8
10196,20.8
10197,20.2
10198,13.3
10199,14.1
10201,18.3
10202,23.8
10203,12.4
10205,29.4
10206,7.5
10209,33.5
10210,54.5
10212,20.5
10213,24.1
10217,8.4
10218,35.6
10222,28.8
10225,8.8
10227,22.9
10228,13.9
10229,12.7
10231,9.7
10232,15.8
10233,32.2
10234,31.3
10236,7.4
10238,12.4
10243,33.5
10244,11.8
10245,6.6
10246,23.5
10247,18.4
10248,10.8
10250,25.5
10253,17.0
10254,17.6
10259,12.9
10260,-7.2
10264,15.7
10265,10.2
10266,15.0
10267,28.5
10269,20.4
10270,14.7
10271,7.3
10272,49.3
10275,9.3
10276,16.3
10277,20.1
10282,30.1
10283,34.0
10284,19.5
10285,26.2
10287,21.8
10288,26.8
10289,13.6
10294,21.3
10297,10.8
10298,33.2
10299,18.2
10301,23.7
10304,20.7
10306,35.4
10307,23.5
10308,35.4
10309,5.9
10310,57.1
10311,8.3
10313,35.7
10316,26.7
10318,15.6
10321,19.0
10322,31.3
10326,34.1
10327,33.4
10329,11.5
10330,16.3
10333,20.7
10335,31.3
10337,32.5
10338,31.4
10339,10.7
10340,24.8
10343,7.7
10347,8.2
10348,9.8
10349,17.5
10353,28.6
10354,16.2
10356,16.4
10358,0.5
10359,13.0
10361,32.1
10363,19.8
10366,25.6
10368,7.6
10369,31.6
10370,54.5
10374,25.3
10375,13.5
10377,31.0
10380,5.2
10382,30.4
10383,33.9
10384,20.8
10388,34.6
10389,18.1
10391,10.6
10392,6.3
10394,26.7
10395,23.6
10399,18.8
10400,30.0
10406,32.2
10407,31.3
10408,5.1
10409,24.8
10410,30.2
10411,17.7
10413,23.6
10414,25.8
10420,-4.7
10423,35.6
10424,29.9
10428,8.1
10430,9.2
10431,9.4
10432,44.2
10434,19.6
10435,10.2
10438,20.5
10439,8.5
10440,15.9
10445,23.6
10446,29.6
10448,10.0
10451,12.1
10458,5.6
10459,22.1
10462,10.6
10464,22.2
10467,13.8
10469,54.5
10472,21.6
10473,19.6
10475,31.9
10476,21.3
10477,16.1
10479,23.8
10480,23.5
10481,28.8
10483,6.0
10485,13.5
10486,6.2
10489,28.3
10492,13.3
10493,31.3
10494,23.8
10496,8.6
10497,16.6
10500,29.2
10501,26.8
10502,34.0
10505,15.8
10506,13.3
10508,5.9
10510,31.4
10512,29.0
10513,11.0
10514,35.0
10515,34.3
10516,33.8
10519,-4.7
10521,10.1
10524,24.9
10529,23.4
10530,33.6
10531,46.8
10533,5.2
10537,33.8
10538,14.0
10540,24.8
10541,34.0
10543,16.1
10544,28.8
10545,20.2
10546,35.4
10548,23.6
10549,19.4
10550,12.4
10552,9.0
10556,10.8
10558,21.8
10560,31.4
10567,5.7
10568,57.1
10570,14.3
10571,24.3
10573,33.2
10576,27.1
10582,31.3
10584,15.2
10587,14.3
10589,24.0
10592,32.0
10594,28.8
10595,8.9
10597,28.6
10598,28.6
10602,8.0
10603,25.3
10604,13.9
10605,22.2
10606,13.3
10607,29.8
10608,13.9
10610,32.4
10612,9.0
10614,6.1
10617,7.6
10618,-7.2
10619,20.8
10621,22.2
10622,23.9
10623,5.7
10626,11.9
10627,15.7
10628,35.4
10630,22.3
10631,46.8
10632,27.0
10633,5.8
10635,35.9
10636,19.4
10640,23.1
10641,8.6
10644,26.2
10645,9.5
10646,11.9
10647,25.5
10649,27.5
10650,27.3
10651,12.8
10652,33.4
10655,12.4
10656,10.8
10658,27.3
10659,23.5
10661,5.4
10663,30.2
10667,22.1
10668,34.7
10669,57.1
10671,33.4
10672,29.3
10673,23.4
10674,14.5
10675,28.8
10677,21.9
10680,13.6
10681,36.5
10689,22.9
10691,27.8
10692,30.9
10693,28.8
10694,23.7
10695,18.3
10696,24.8
10700,26.4
10705,21.0
10710,16.1
10711,9.8
10713,23.8
10714,21.8
10715,5.5
10716,7.1
10717,6.5
10718,15.3
10719,-9.8
10720,19.3
10722,12.2
10724,28.4
10727,16.5
10730,32.7
10731,46.8
10733,7.6
10734,14.9
10735,18.8
10736,7.9
10737,11.9
10738,25.6
10739,7.1
10740,23.2
10741,22.1
10742,9.3
10743,23.6
10744,11.8
10748,5.6
10754,13.7
10756,8.2
10757,19.8
10759,17.4
10760,24.0
10761,24.8
10765,31.3
10767,51.9
10769,14.2
10771,14.3
10775,29.0
10780,26.2
10781,20.5
10784,33.2
10785,15.0
10786,32.2
10787,5.3
10788,13.7
10792,33.9
10795,10.7
10796,28.1
10797,32.9
10798,10.4
10800,14.3
10804,5.1
10805,13.3
10807,6.0
10808,7.5
10809,27.0
10815,14.5
10816,27.3
10817,-4.7
10818,15.6
10819,34.2
10821,17.3
10823,8.3
10825,21.6
10826,14.8
10827,13.7
10829,49.3
10832,34.7
10833,33.8
10834,16.9
10835,30.9
10836,22.5
10839,16.7
10840,10.0
10843,28.8
10845,10.1
10847,19.0
10850,12.4
10852,28.6
10854,11.9
10855,13.3
10858,9.5
10859,29.6
10860,25.9
10864,14.0
10865,10.6
10866,11.9
10867,57.1
10870,7.6
10872,24.8
10873,33.6
10875,9.3
10880,28.8
10882,17.0
10887,6.4
10889,5.6
10890,30.7
10891,23.8
10892,31.3
10894,17.2
10901,33.0
10903,26.4
10904,10.8
10906,23.6
10909,18.7
10910,8.1
10912,14.2
10913,9.9
10914,9.3
10917,-7.2
10918,9.1
10919,14.4
10923,17.6
10926,21.8
10930,49.3
10931,28.8
10935,33.1
10936,16.1
10937,12.5
10941,10.5
10942,26.2
10945,17.6
10948,23.7
10952,19.7
10954,13.3
10959,35.7
10960,5.2
10961,11.9
10962,8.9
10963,16.0
10964,6.0
10965,11.7
10967,57.1
10969,31.0
10977,23.2
10978,20.5
10979,14.4
10980,33.9
10982,29.2
10983,30.5
10984,5.2
10985,9.7
10986,18.0
10987,25.8
10990,6.5
10991,22.9
10992,28.8
10993,24.9
10994,11.6
10996,24.2
11001,20.2
11004,13.3
11005,20.1
11007,23.7
11008,5.1
11009,25.0
11011,10.7
11012,23.0
11014,15.6
11015,8.1
11017,-4.7
11018,9.5
11019,31.1
11023,16.7
11026,27.3
11028,13.7
11029,46.8
11032,20.3
11036,20.9
11039,16.4
11040,35.1
11042,26.2
11047,14.6
11053,27.5
11054,23.0
11055,10.8
11056,24.3
11057,32.9
11058,12.0
11059,13.9
11060,29.2
11066,27.5
11067,57.1
11070,35.3
11071,9.2
11074,12.3
11076,34.8
11078,25.2
11079,31.3
11080,19.5
11082,33.4
11086,21.6
11087,7.3
11088,15.3
11090,14.0
11091,28.8
11093,27.8
11095,31.0
11096,18.8
11097,29.3
11102,8.7
11103,14.2
11104,23.6
11108,28.5
11110,11.1
11113,24.0
11115,33.3
11116,33.5
11117,-9.8
11119,25.8
11123,35.2
11124,18.3
11127,18.0
11128,18.3
11129,44.2
11131,6.8
11132,10.5
11133,19.6
11134,32.8
11137,18.0
11142,23.6
11144,8.9
11147,29.3
11148,10.0
11149,7.7
11150,26.7
11152,15.0
11154,8.2
11157,22.0
11161,17.6
11163,7.3
11165,51.9
11166,27.4
11168,6.9
11174,9.1
11175,7.1
11176,8.5
11179,28.8
11180,19.8
11182,22.0
11183,33.7
11186,5.7
11188,24.5
11189,19.8
11190,18.3
11191,33.9
11193,15.4
11194,9.2
11198,11.2
11199,20.1
11200,21.7
11201,23.2
11203,13.3
11208,7.2
11209,9.3
11210,30.4
11211,21.0
11212,13.8
11213,20.9
11214,17.8
11215,-4.7
11219,33.3
11223,7.6
11226,13.9
11228,49.3
11231,9.7
11236,14.7
11240,5.7
11241,28.8
11242,5.9
11247,28.1
11251,19.1
11252,15.4
11253,13.3
11257,33.2
11258,22.7
11260,21.7
11262,33.1
11266,54.5
11267,9.6
11270,12.5
11271,26.6
11275,11.4
11276,13.0
11278,31.3
11279,15.7
11283,25.4
11284,20.6
11285,16.8
11286,24.0
11287,8.9
11288,19.8
11289,34.9
11290,31.3
11291,27.1
11293,8.2
11294,25.4
11297,11.3
11298,26.2
11299,17.8
11302,10.8
11305,22.7
11310,32.4
11312,15.6
11315,11.5
11316,-7.2
11317,21.2
11318,6.3
11319,8.0
11320,13.5
11321,32.0
11322,30.3
11324,29.9
11325,10.1
11326,18.3
11328,49.3
11329,14.1
11333,18.4
11334,31.8
11335,32.2
11338,32.0
11339,16.4
11340,28.8
11344,30.0
11349,20.1
11351,35.8
11353,10.8
11355,14.8
11357,15.7
11360,34.8
11364,33.2
11365,57.1
11367,20.2
11369,30.9
11373,25.9
11374,14.7
11376,28.3
11377,24.0
11378,31.3
11381,35.3
11382,13.1
11383,18.7
11384,14.1
11385,18.2
11387,10.1
11388,30.2
11389,22.9
11390,28.8
11393,27.0
11403,13.3
11404,30.7
11405,5.7
11414,17.6
11415,-7.2
11416,9.3
11417,5.2
11419,17.8
11423,9.0
11427,46.8
11428,22.6
11431,15.1
11434,21.5
11436,15.3
11437,8.4
11440,30.4
11441,23.6
11444,6.7
11445,18.1
11446,8.9
11447,18.9
11448,18.0
11451,20.3
11452,23.5
11453,10.8
11455,12.2
11456,14.9
11457,5.7
11458,18.7
11459,29.1
11461,13.0
11463,32.2
11464,31.9
11465,57.1
11466,7.3
11468,22.8
11477,14.3
11478,31.3
11480,31.9
11483,25.4
11484,32.9
11487,10.8
11490,28.8
11491,29.4
11492,14.1
11494,20.3
11496,22.1
11497,31.6
11502,21.0
11503,34.0
11504,26.7
11506,27.6
11513,5.2
11514,33.2
11515,-9.8
11520,35.1
11521,27.4
11522,19.4
11523,32.2
11524,16.6
11526,31.8
11528,44.2
11529,14.0
11531,25.3
11532,19.2
11534,11.3
11536,25.1
11540,23.6
11541,21.4
11543,7.9
11544,19.0
11546,26.1
11552,8.2
11553,34.4
11555,35.5
11557,9.5
11560,12.5
11562,18.8
11564,51.9
11567,27.7
11569,9.8
11570,6.7
11571,22.6
11572,26.8
11573,14.8
11577,26.2
11579,27.3
11582,17.2
11583,17.4
11584,27.6
11589,33.9
11590,5.4
11591,11.1
11593,24.5
11594,25.8
11596,31.3
11599,29.3
11601,10.8
11602,30.0
11603,18.2
11604,5.1
11605,7.1
11606,9.3
11609,29.6
11614,-4.7
11615,9.7
11616,30.5
11617,31.1
11621,32.6
11626,49.3
11632,27.3
11634,21.1
11636,20.6
11637,13.3
11638,17.0
11639,31.3
11643,12.8
11644,34.9
11645,21.8
11646,11.3
11648,28.3
11650,18.1
11652,15.9
11653,19.0
11655,22.9
11658,5.7
11664,54.5
11665,29.5
11667,10.2
11669,35.3
11672,21.7
11673,17.6
11676,28.8
11677,27.4
11679,24.8
11682,26.6
11685,16.8
11688,31.3
11689,31.4
11690,24.8
11693,12.8
11697,33.4
11698,32.6
11699,32.2
11700,23.6
11701,10.8
11703,5.7
11704,35.5
11707,33.4
11709,13.7
11710,27.2
11711,6.6
11712,31.9
11713,9.5
11714,-7.2
11715,24.3
11718,28.7
11720,7.9
11726,49.3
11727,22.5
11728,11.7
11735,6.5
11736,25.2
11737,32.6
11738,5.0
11739,28.8
11740,8.4
11741,15.3
11742,17.1
11743,19.7
11745,29.4
11746,21.4
11747,26.4
11751,10.8
11755,27.0
11756,6.9
11757,32.2
11762,11.7
11763,54.5
11764,21.2
11767,20.8
11772,24.8
11773,27.6
11774,6.1
11776,12.9
11777,31.3
11782,7.1
11788,13.7
11789,28.8
11791,13.4
11792,7.0
11796,17.6
11797,32.7
11799,15.5
11800,26.3
11801,13.3
11802,30.8
11803,10.9
11806,24.7
11808,8.2
11809,21.0
11810,11.7
11812,14.6
11813,-9.8
11815,14.9
11816,20.7
11818,11.1
11819,24.4
11820,5.4
11823,33.6
11826,46.8
11827,21.0
11828,14.9
11833,13.7
11834,8.4
11835,31.1
11838,26.2
11839,19.0
11841,13.1
11844,7.8
11847,33.7
11848,6.2
11851,10.8
11852,32.5
11853,29.5
11855,25.4
11858,17.5
11859,23.8
11860,26.5
11863,25.0
11864,54.5
11865,11.3
11867,26.8
11868,18.5
11869,8.3
11870,21.0
11874,17.1
11875,35.4
11876,33.9
11879,21.0
11881,18.1
11882,7.6
11884,22.7
11885,30.6
11887,16.9
11888,28.8
11889,16.0
11890,27.8
11897,21.2
11898,25.6
11900,21.0
11902,10.0
11903,7.0
11904,32.0
11906,27.3
11907,31.8
11914,-9.8
11919,15.3
11920,35.4
11921,11.4
11925,10.9
11926,44.2
11928,16.1
11929,21.7
11930,23.2
11933,18.1
11938,23.6
11939,18.6
11940,9.6
11941,16.5
11943,16.3
11945,12.4
11951,8.2
11954,12.7
11956,25.3
11957,28.9
11959,20.8
11962,51.9
11965,13.8
11966,17.0
11970,25.4
11971,7.9
11975,26.2
11977,33.1
11978,26.7
11979,15.4
11984,6.3
11985,26.1
11986,21.7
11987,33.9
11988,13.3
11990,18.2
11993,22.0
11994,23.7
11995,11.4
11996,30.3
11998,29.1
12000,13.3
12001,5.2
12003,29.4
12004,15.6
12005,9.9
12006,30.6
12009,10.5
12012,-2.1
12013,28.4
12015,18.3
12018,22.4
12020,25.1
12021,12.9
12023,7.2
12024,51.9
12025,16.5
12026,27.9
12029,6.9
12030,14.9
12031,32.1
12033,16.5
12034,14.3
12036,8.3
12037,28.8
12039,12.4
12040,29.9
12044,19.5
12045,10.9
12046,33.4
12050,13.3
12052,21.6
12053,22.5
12054,19.6
12055,32.5
12056,31.1
12057,24.8
12058,28.7
12059,11.9
12062,54.5
12066,31.8
12068,31.2
12069,34.5
12073,29.6
12075,28.8
12078,19.5
12081,33.5
12082,34.5
12083,8.6
12085,32.2
12087,31.3
12088,20.5
12089,9.3
12090,9.0
12091,27.7
12095,25.2
12097,33.6
12098,11.2
12099,10.8
12101,29.2
12102,6.9
12103,18.7
12106,7.6
12110,7.3
12111,30.6
12112,-4.7
12113,27.2
12117,13.6
12119,11.0
12123,25.9
12125,49.3
12126,20.2
12128,32.5
12129,34.9
12131,15.8
12134,25.4
12137,26.2
12142,31.3
12144,26.4
12147,18.9
12149,10.8
12150,19.6
12151,28.5
12154,30.9
12157,29.3
12159,33.0
12160,34.0
12162,57.1
12164,26.0
12168,23.1
12169,19.7
12171,16.7
12174,27.0
12175,31.3
12180,18.5
12181,28.9
12185,17.5
12186,19.1
12187,26.2
12194,14.2
12196,23.8
12198,27.4
12199,10.8
12201,16.7
12204,31.5
12205,11.0
12207,29.1
12210,5.5
12211,24.1
12212,-7.2
12216,16.4
12217,10.0
12224,46.8
12225,30.5
12226,13.7
12230,9.3
12233,25.9
12236,26.2
12239,26.1
12240,16.3
12241,29.2
12245,24.3
12246,34.7
12247,10.7
12249,31.0
12250,10.8
12251,23.0
12253,28.6
12256,12.6
12257,24.3
12258,5.4
12259,5.7
12261,26.5
12262,57.1
12266,19.8
12268,12.5
12270,6.6
12271,8.5
12273,20.3
12274,31.3
12276,24.9
12277,8.5
12279,33.1
12280,15.2
12283,28.1
12286,28.8
12290,8.0
12295,7.1
12297,27.0
12299,21.0
12302,33.2
12305,18.0
12306,6.0
12307,6.0
12312,-9.8
12313,17.4
12314,22.4
12315,27.3
12318,25.8
12320,31.2
12324,46.8
12326,33.2
12331,23.5
12332,31.8
12336,33.5
12337,26.2
12340,11.3
12342,14.9
12343,20.7
12344,27.1
12346,16.1
12347,32.7
12348,23.6
12349,5.6
12350,8.3
12352,22.7
12358,19.6
12360,54.5
12363,7.8
12364,12.8
12368,12.5
12369,32.8
12373,20.7
12374,26.2
12375,17.8
12377,24.6
12378,31.4
12383,26.0
12386,33.9
12387,12.4
12388,9.8
12389,32.2
12393,7.8
12394,35.8
12396,20.3
12397,9.3
12398,13.3
12399,25.4
12400,18.1
12401,9.5
12406,21.1
12410,-4.7
12414,14.6
12415,21.7
12417,13.2
12421,32.6
12422,33.0
12423,51.9
12424,35.6
12426,20.4
12428,9.0
12434,5.1
12435,31.3
12437,30.1
12443,26.4
12444,27.8
12447,25.4
12448,13.3
12450,5.6
12451,17.1
12452,6.5
12454,14.4
12456,28.1
12459,29.5
12461,54.5
12463,14.9
12465,23.3
12466,22.3
12467,15.5
12468,11.5
12469,9.4
12471,32.2
12473,31.3
12475,17.4
12477,25.2
12479,27.6
12481,32.3
12483,26.6
12485,31.3
12486,11.1
12487,12.3
12489,32.9
12491,31.2
12492,33.2
12495,16.8
12497,10.8
12499,27.1
12500,30.8
12502,11.2
12504,5.4
12506,33.1
12508,6.8
12509,6.2
12511,-4.7
12512,6.6
12516,30.4
12517,23.2
12519,7.0
12521,18.7
12523,46.8
12525,8.5
12526,5.1
12527,34.2
12533,31.5
12535,28.8
12537,21.5
12540,6.4
12541,21.3
12543,35.5
12545,12.1
12547,26.7
12548,13.3
12550,13.6
12552,15.4
12553,32.3
12558,23.6
12559,10.6
12560,57.1
12561,26.2
12565,24.3
12566,12.1
12569,33.6
12571,26.9
12573,31.3
12574,24.6
12575,17.9
12576,7.7
12578,28.9
12579,17.2
12580,21.5
12581,24.9
12582,20.9
12583,30.1
12585,28.8
12587,9.4
12588,9.3
12589,24.7
12590,21.1
12592,15.8
12596,35.5
12597,28.6
12598,10.8
12599,14.4
12601,19.2
12608,26.6
12609,12.9
12610,-7.2
12611,19.2
12612,5.1
12613,15.8
12618,27.3
12619,7.3
12622,46.8
12623,30.7
12625,35.9
12628,6.1
12629,15.8
12631,22.0
12633,11.6
12635,26.2
12636,29.2
12638,12.6
12640,31.7
12643,18.4
12648,8.2
12650,33.8
12651,23.7
12652,24.2
12653,14.0
12654,9.3
12656,22.3
12658,35.6
12659,51.9
12663,28.2
12665,9.3
12667,18.1
12672,23.6
12673,12.2
12675,36.0
12680,27.7
12682,16.0
12684,33.9
12688,5.9
12689,27.6
12690,17.6
12695,20.1
12696,13.3
12697,19.8
12703,31.9
12705,20.8
12706,19.8
12708,32.0
12709,-2.1
12711,8.9
12712,21.5
12717,30.1
12718,11.7
12719,33.7
12720,18.4
12722,51.9
12723,21.3
12724,25.6
12725,16.1
12726,7.7
12729,25.3
12730,32.3
12731,29.3
12732,10.0
12734,28.8
12739,33.7
12741,10.3
12744,9.9
12745,18.2
12746,15.9
12747,18.5
12748,21.0
12749,26.4
12750,5.3
12751,26.7
12752,11.0
12756,25.0
12757,7.7
12759,54.5
12760,17.3
12761,30.3
12766,10.2
12767,22.1
12770,24.9
12772,26.2
12774,26.0
12778,27.1
12779,35.0
12780,5.0
12781,14.0
12782,23.1
12784,33.9
12786,30.1
12787,22.5
12788,8.3
12791,15.0
12792,24.3
12794,19.9
12795,9.7
12796,13.3
12797,15.0
12798,23.7
12804,20.4
12807,14.2
12808,22.0
12809,-4.7
12810,10.8
12816,22.3
12818,34.7
12819,21.5
12820,14.8
12821,51.9
12822,33.7
12825,33.5
12826,34.2
12827,14.0
12831,29.0
12832,8.4
12833,28.8
12834,34.4
12835,17.0
12838,20.0
12839,23.1
12842,22.7
12843,34.6
12844,9.3
12846,34.7
12847,13.3
12849,31.8
12851,31.9
12852,15.9
12853,7.9
12855,21.5
12856,7.5
12857,8.5
12858,35.3
12859,54.5
12860,21.3
12861,6.2
12862,32.1
12865,16.2
12868,6.4
12871,28.8
12872,27.3
12874,10.7
12877,13.4
12879,26.8
12882,10.6
12883,31.3
12884,34.4
12885,22.4
12886,32.6
12888,15.8
12889,19.4
12894,6.5
12896,10.8
12898,12.2
12899,5.5
12900,9.4
12903,11.1
12909,-4.7
12911,8.8
12913,27.7
12914,9.6
12915,24.6
12916,7.0
12917,20.7
12920,30.9
12921,49.3
12922,6.1
12923,13.5
12924,22.7
12925,35.0
12926,17.4
12928,24.9
12929,15.7
12931,35.9
12933,10.0
12934,28.8
12946,10.8
12947,31.4
12948,17.7
12949,11.5
12952,8.7
12954,22.4
12955,16.9
12956,32.5
12957,5.4
12958,54.5
12959,34.5
12961,24.8
12962,5.6
12965,9.2
12966,13.1
12969,10.4
12970,16.9
12971,27.0
12972,31.3
12973,9.3
12974,26.8
12976,22.8
12977,16.3
12979,19.6
12981,29.6
12983,24.7
12984,31.3
12987,35.8
12989,26.6
12990,15.1
12994,32.4
12996,13.3
13002,26.4
13003,30.0
13007,28.6
13008,-7.2
13010,14.5
13014,34.3
13017,34.8
13019,16.4
13021,46.8
13026,17.6
13027,29.1
13029,20.4
13033,26.2
13034,6.5
13036,16.8
13037,33.0
13042,29.5
13043,16.2
13044,14.4
13046,10.8
13047,34.1
13049,11.8
13052,15.2
13054,7.0
13056,16.8
13057,18.3
13059,57.1
13060,22.0
13061,21.6
13063,30.5
13064,16.0
13069,32.1
13070,11.2
13071,33.9
13077,28.2
13082,13.3
13083,28.8
13084,11.1
13085,14.2
13087,28.0
13089,12.1
13091,34.1
13095,23.6
13096,15.9
13099,22.0
13100,18.3
13101,10.0
13102,17.9
13107,20.3
13109,-9.8
13111,18.5
13114,17.1
13115,14.3
13116,14.7
13118,9.8
13119,31.7
13120,30.2
13121,46.8
13124,19.7
13126,21.3
13127,5.1
13130,20.7
13133,23.6
13134,23.9
13137,12.6
13139,29.0
13142,25.2
13144,28.9
13146,8.2
13147,23.9
13148,11.8
13149,30.7
13150,12.8
13153,12.6
13155,35.2
13157,51.9
13161,18.3
13165,23.5
13168,15.5
13169,26.2
13170,21.6
13172,16.0
13175,28.7
13178,29.5
13181,14.9
13182,33.9
13192,6.8
13195,13.3
13196,35.8
13205,6.0
13206,10.4
13207,-2.1
13208,13.3
13210,19.4
13212,27.7
13213,5.3
13214,19.2
13217,13.7
13218,33.5
13219,49.3
13220,28.5
13224,28.5
13225,22.6
13227,26.6
13231,18.9
13232,31.3
13233,33.4
13235,20.2
13237,9.4
13240,35.1
13244,14.8
13245,13.3
13246,24.7
13247,33.6
13248,25.7
13250,35.1
13254,5.1
13256,22.4
13257,54.5
13259,5.9
13261,18.1
13265,15.4
13267,35.8
13268,8.4
13269,6.2
13270,31.3
13272,9.1
13273,26.6
13274,5.2
13277,35.8
13278,5.7
13280,10.7
13281,22.4
13282,31.3
13283,14.7
13284,15.6
13287,32.4
13291,9.3
13292,19.4
13293,13.2
13294,10.8
13295,26.2
13296,25.8
13304,12.2
13307,-7.2
13308,11.9
13311,20.2
13319,31.6
13320,46.8
13321,28.5
13322,10.8
13324,29.7
13326,27.5
13328,8.1
13330,9.4
13332,28.8
13333,25.4
13335,22.9
13336,13.5
13338,31.9
13339,17.4
13342,10.7
13344,13.3
13345,19.3
13351,13.2
13352,22.1
13357,57.1
13358,31.1
13359,16.8
13360,10.7
13361,25.7
13367,8.4
13368,6.6
13370,31.3
13371,16.3
13374,11.9
13379,11.0
13382,28.8
13383,27.2
13385,15.9
13387,14.1
13390,34.6
13394,10.8
13396,13.0
13397,28.5
13398,35.3
13399,29.7
13400,30.5
13401,24.4
13403,23.1
13406,15.0
13407,-7.2
13410,7.4
13411,25.6
13412,33.6
13413,15.7
13414,16.1
13415,28.4
13418,11.8
13419,46.8
13421,19.1
13422,6.0
13423,28.7
13425,9.2
13426,10.8
13430,31.2
13431,26.2
13432,17.9
13435,11.2
13436,18.7
13439,16.9
13441,35.9
13445,10.8
13450,9.4
13452,7.7
13454,14.8
13455,19.7
13457,57.1
13462,34.9
13466,27.3
13467,28.6
13469,31.3
13470,28.2
13475,28.6
13476,13.0
13477,8.1
13479,28.4
13480,5.9
13481,26.2
13482,13.0
13484,8.7
13488,35.2
13493,25.3
13494,23.6
13495,17.2
13496,5.4
13497,24.3
13498,6.8
13499,22.7
13504,7.6
13505,30.8
13507,-9.8
13511,12.5
13513,29.5
13515,12.3
13516,24.2
13519,46.8
13523,15.4
13524,7.3
13525,28.1
13529,34.2
13530,14.6
13532,23.6
13533,6.0
13534,15.2
13536,24.1
13540,23.3
13544,8.2
13546,9.4
13547,30.4
13553,33.3
13555,54.5
13556,26.8
13558,18.0
13560,12.1
13561,29.9
13562,34.4
13564,34.5
13565,11.7
13568,26.2
13569,29.2
13572,30.7
13574,21.5
13575,22.2
13577,34.7
13581,31.3
13591,14.6
13593,10.8
13595,15.7
13596,34.0
13597,25.4
13599,25.2
13602,6.8
13603,16.4
13605,-2.1
13606,30.3
13610,17.4
13611,16.4
13615,31.6
13616,9.5
13618,51.9
13623,10.4
13626,27.4
13627,8.3
13628,12.9
13629,19.6
13630,31.3
13632,28.8
13633,18.7
13635,19.5
13636,23.8
13638,7.0
13639,27.3
13640,14.1
13642,5.8
13643,13.3
13644,13.8
13647,13.0
13648,32.8
13651,21.2
13652,26.9
13653,25.1
13654,12.7
13655,32.4
13656,54.5
13657,16.5
13662,33.4
13668,28.8
13669,7.6
13670,6.2
13671,25.2
13672,9.9
13673,35.4
13676,20.0
13680,31.3
13681,8.7
13682,24.9
13683,14.9
13685,17.6
13687,26.2
13688,8.6
13692,10.8
13693,25.9
13696,19.5
13698,8.9
13699,33.0
13703,34.8
13705,30.1
13706,-4.7
13707,33.2
13711,11.6
13712,10.0
13713,8.5
13717,18.2
13718,49.3
13720,26.2
13721,7.6
13724,6.7
13725,20.6
13730,28.8
13731,12.1
13732,24.2
13743,10.8
13748,9.9
13749,23.4
13751,12.6
13752,22.6
13754,7.3
13755,54.5
13756,15.0
13757,11.8
13758,19.3
13759,29.1
13761,8.5
13762,5.8
13763,9.2
13767,31.3
13773,20.9
13774,19.0
13776,5.0
13777,24.9
13778,15.7
13779,23.4
13780,31.3
13785,24.2
13786,27.6
13787,16.6
13793,13.3
13795,11.1
13797,12.9
13798,14.9
13799,5.3
13801,35.6
13802,5.2
13803,29.1
13804,16.7
13805,-7.2
13806,30.0
13813,12.6
13814,20.3
13816,24.0
13817,46.8
13818,32.5
13819,28.1
13821,14.6
13823,15.7
13824,6.7
13826,23.4
13827,20.6
13829,19.0
13830,26.2
13832,17.3
13833,12.4
13836,29.2
13838,13.4
13842,23.7
13843,10.8
13844,27.3
13845,11.4
13849,17.7
13850,26.4
13851,26.1
13853,14.2
13854,7.1
13855,57.1
13858,27.0
13860,9.5
13861,29.5
13862,21.8
13864,8.0
13866,7.3
13867,12.6
13868,31.3
13869,22.0
13873,9.1
13874,10.3
13879,6.5
13880,28.8
13882,28.3
13883,8.1
13885,12.6
13886,16.6
13889,8.1
13891,14.6
13892,21.0
13895,9.6
13898,8.1
13899,21.6
13901,22.0
13902,16.2
13905,-7.2
13907,12.3
13910,6.0
13913,22.1
13914,11.1
13915,27.7
13916,32.3
13918,44.2
13920,25.8
13922,21.2
13923,27.4
13924,24.8
13928,11.9
13930,26.2
13932,31.1
13935,12.4
13936,22.5
13938,25.7
13939,7.7
13942,5.6
13943,34.1
13947,19.8
13950,12.6
13951,16.8
13952,5.4
13953,28.2
13954,51.9
13956,23.4
13958,14.5
13959,20.1
13962,19.9
13964,6.4
13965,5.7
13966,26.2
13968,9.0
13970,13.0
13971,27.2
13973,29.2
13976,35.0
13977,33.3
13978,19.2
13979,33.9
13980,18.4
13984,13.3
13989,16.3
13990,29.6
13991,13.3
13993,29.6
13994,25.8
13997,31.0
14000,14.9
14003,10.6
14004,-4.7
14005,19.2
14007,21.4
14008,7.5
14009,8.4
14012,29.2
14014,28.4
14016,49.3
14018,24.3
14025,29.8
14027,14.4
14028,28.8
14029,13.0
14033,16.3
14037,23.8
14038,9.4
14039,17.3
14042,13.3
14045,15.5
14046,30.5
14049,23.6
14052,19.1
14053,20.5
14054,57.1
14056,12.3
14058,18.8
14059,26.2
14061,8.6
14062,28.4
14063,20.5
14065,17.9
14066,28.8
14069,9.4
14074,18.2
14075,23.1
14076,17.4
14077,9.2
14078,31.3
14081,17.5
14082,30.7
14083,33.6
14088,18.7
14089,11.8
14090,5.8
14091,10.8
14092,16.3
14093,11.4
14094,8.1
14095,21.9
14099,31.4
14100,19.8
14102,13.9
14104,-4.7
14106,35.8
14109,10.1
14114,9.3
14115,26.3
14116,49.3
14117,33.8
14121,28.6
14122,13.9
14127,16.8
14129,28.8
14131,7.1
14132,14.2
14136,17.1
14140,16.8
14141,13.3
14143,20.3
14146,11.3
14148,11.8
14149,14.2
14150,26.1
14153,57.1
14160,7.2
14161,19.2
14162,29.2
14163,26.2
14166,31.3
14167,10.4
14169,25.8
14170,16.6
14178,14.2
14179,28.8
14180,12.0
14184,23.6
14185,35.7
14186,27.9
14191,10.8
14192,11.4
14194,33.6
14195,13.1
14196,5.8
14198,12.8
14199,14.7
14203,-7.2
14204,21.7
14205,22.5
14207,23.4
14208,33.0
14211,33.7
14213,11.7
14214,22.1
14216,46.8
14219,29.2
14220,12.2
14221,5.9
14222,21.8
14227,20.1
14228,26.2
14231,23.7
14232,24.9
14235,17.4
14240,12.0
14241,10.8
14242,31.1
14243,28.7
14245,22.9
14250,10.6
14251,34.5
14252,29.2
14254,54.5
14255,26.9
14256,34.4
14257,8.5
14258,25.0
14259,20.0
14260,6.8
14262,15.2
14263,11.9
14265,7.0
14266,33.9
14271,33.1
14272,6.5
14274,28.0
14275,26.3
14276,22.9
14278,28.8
14279,7.5
14280,19.0
14281,9.0
14282,9.9
14283,19.9
14287,21.1
14289,5.6
14290,21.0
14291,21.6
14292,18.8
14293,23.1
14294,35.7
14296,17.4
14297,6.7
14298,30.6
14299,15.4
14300,18.9
14301,24.0
14302,29.5
14304,-7.2
14309,27.5
14312,25.3
14315,30.8
14316,46.8
14317,19.8
14318,13.8
14319,24.0
14320,24.4
14322,6.8
14324,10.0
14326,31.9
14328,23.6
14329,8.3
14330,8.9
14331,13.7
14332,31.5
14333,29.5
14334,35.6
14335,16.0
14336,27.9
14339,22.1
14340,21.6
14341,8.2
14345,8.2
14347,34.2
14351,35.0
14352,51.9
14354,18.4
14356,20.3
14359,24.6
14360,26.2
14363,34.7
14364,28.8
14365,26.9
14366,17.6
14367,12.5
14368,35.8
14373,11.2
14375,7.9
14376,23.5
14377,33.9
14378,35.4
14380,16.4
14381,15.9
14383,30.4
14387,28.1
14390,10.8
14391,28.4
14394,8.2
14397,23.5
14399,23.9
14400,11.8
14402,-2.1
14403,33.3
14404,20.7
14405,7.7
14406,31.0
14407,11.5
14410,31.4
14411,27.0
14414,49.3
14416,25.1
14418,32.5
14420,6.7
14421,21.4
14424,34.4
14427,28.8
14434,26.6
14436,8.5
14439,11.4
14440,13.3
14443,30.5
14444,20.5
14445,18.2
14449,20.3
14452,54.5
14455,10.8
14459,26.2
14464,10.3
14465,31.3
14468,17.1
14473,29.9
14475,26.4
14476,18.1
14477,31.3
14478,8.7
14479,31.0
14480,7.4
14489,13.3
14490,24.0
14491,21.3
14492,13.3
14496,6.1
14497,31.3
14498,14.6
14501,23.7
14502,-7.2
14503,6.7
14504,19.8
14506,10.1
14508,16.1
14510,14.2
14511,21.0
14512,15.3
14515,49.3
14516,12.0
14518,26.5
14519,33.0
14520,30.4
14522,12.3
14527,28.8
14529,23.5
14533,23.2
14535,28.5
14536,8.8
14538,19.9
14539,10.8
14541,13.6
14543,27.7
14544,23.7
14547,9.8
14551,33.2
14552,54.5
14556,29.1
14558,32.7
14563,8.3
14564,33.9
14567,30.1
14568,7.2
14569,23.6
14570,27.9
14574,15.0
14576,32.3
14577,28.8
14578,7.1
14579,27.9
14581,35.4
14582,34.4
14588,12.9
14589,10.8
14591,20.3
14592,18.1
14593,10.6
14594,34.0
14600,30.4
14602,-7.2
14607,35.7
14608,26.9
14609,17.6
14610,6.2
14611,26.6
14614,46.8
14618,17.3
14620,22.7
14622,13.1
14623,13.0
14624,30.6
14625,27.4
14626,26.2
14628,22.2
14632,14.9
14634,7.9
14636,17.1
14639,29.1
14640,10.8
14641,23.7
14643,5.3
14645,28.9
14646,19.6
14649,17.4
14651,25.5
14652,57.1
14654,15.5
14655,34.7
14656,6.4
14657,23.2
14658,26.6
14660,14.5
14661,32.3
14664,31.3
14666,23.0
14667,19.4
14670,24.5
14672,33.4
14675,6.0
14676,26.2
14680,35.5
14682,23.9
14685,31.9
14686,26.8
14688,19.3
14689,21.0
14691,24.7
14701,32.7
14702,-9.8
14703,15.2
14705,34.3
14708,33.7
14714,44.2
14716,18.0
14720,20.8
14722,7.1
14724,11.4
14725,34.9
14727,23.6
14729,19.6
14732,34.0
14733,19.0
14738,19.8
14739,8.2
14740,9.2
14741,19.8
14743,12.0
14744,14.1
14746,5.3
14749,33.5
14750,51.9
14752,14.5
14753,25.2
14756,25.0
14758,27.8
14759,34.3
14761,7.9
14762,24.1
14763,26.2
14767,32.3
14768,31.0
14769,12.1
14770,30.1
14772,17.8
14774,33.3
14775,10.7
14776,33.9
14781,12.3
14784,14.7
14787,33.0
14788,13.3
14792,7.9
14793,21.9
14796,25.1
14798,14.6
14800,-2.1
14802,13.3
14804,14.2
14805,35.1
14806,32.1
14807,13.4
14810,25.8
14812,25.7
14813,49.3
14815,9.9
14816,13.7
14823,30.1
14825,31.3
14826,28.4
14827,5.2
14834,23.6
14836,18.6
14837,15.9
14838,13.3
14839,32.7
14842,7.8
14843,25.7
14844,21.0
14845,25.4
14848,35.4
14849,17.9
14850,13.5
14851,57.1
14852,24.0
14854,22.9
14857,8.2
14859,20.3
14861,11.0
14862,21.7
14863,28.8
14864,26.9
14865,32.8
14868,19.5
14869,14.9
14871,30.8
14873,9.2
14875,28.8
14877,31.0
14878,35.7
14880,26.2
14885,24.3
14886,20.8
14887,10.8
14888,30.6
14893,17.0
14898,7.4
14901,-7.2
14902,33.0
14903,29.2
14905,5.8
14909,11.2
14913,49.3
14914,16.9
14915,24.1
14919,10.6
14922,22.9
14925,28.8
14932,35.7
14938,13.3
14941,6.1
14942,34.7
14943,12.5
14949,16.8
14950,54.5
14953,16.8
14954,23.1
14956,34.0
14962,31.3
14964,18.1
14966,10.4
14968,10.2
14971,15.8
14974,12.2
14976,28.8
14977,16.9
14978,22.6
14982,7.9
14983,7.0
14984,30.5
14987,29.3
14988,10.8
14991,10.9
14993,26.0
14996,30.9
14999,29.6
15000,-7.2
15001,29.3
15002,14.5
15006,13.7
15008,24.6
15011,9.6
15012,46.8
15013,5.1
15014,18.2
15018,10.5
15022,28.1
15023,13.4
15025,26.2
15027,10.9
15028,30.0
15032,25.9
15033,21.7
15034,12.1
15037,12.4
15038,10.8
15041,11.5
15042,16.5
15044,34.1
15046,27.9
15048,16.8
15050,57.1
15051,33.0
15053,12.9
15055,6.2
15056,18.5
15058,30.1
15059,30.2
15063,33.9
15065,10.4
15069,12.7
15070,22.4
15071,16.9
15072,24.2
15073,9.1
15075,26.2
15080,15.2
15081,5.6
15082,13.3
15084,15.5
15085,30.8
15087,23.6
15088,22.9
15091,15.8
15094,35.2
15096,31.4
15097,24.6
15099,34.0
15100,-7.2
15105,30.0
15106,35.6
15108,23.9
15110,32.3
15111,33.6
15112,31.1
15113,44.2
15114,31.8
15116,12.7
15117,18.2
15118,33.0
15119,32.1
15120,18.1
15121,15.1
15122,15.0
15124,8.0
15125,23.6
15128,31.7
15130,17.6
15133,6.4
15136,19.2
15137,10.8
15139,29.9
15140,21.2
15143,5.1
15147,28.6
15150,54.5
15152,29.7
15154,15.5
15155,9.2
15157,20.8
15160,19.1
15162,33.9
15165,34.0
15166,35.6
15168,27.9
15172,23.9
15173,17.5
15174,16.7
15175,23.6
15182,34.8
15184,18.3
15185,23.3
15186,24.0
15187,31.3
15191,13.0
15192,5.5
15194,26.7
15195,19.2
15196,31.5
15198,24.9
15199,32.0
15200,-7.2
15201,31.9
15202,18.4
15203,6.6
15207,31.2
15208,24.3
15210,33.2
15212,44.2
15214,7.5
15216,34.9
15217,11.7
15218,21.2
15222,29.7
15224,23.6
15225,34.5
15231,33.9
15233,18.9
15235,15.4
15237,19.9
15238,5.6
15243,16.1
15244,18.4
15249,57.1
15251,15.1
15254,25.2
15255,7.4
15260,27.6
15261,31.3
15263,18.1
15264,5.6
15265,8.0
15270,20.2
15273,31.3
15278,14.1
15281,22.5
15284,27.4
15285,10.6
15286,8.2
15291,13.8
15292,11.4
15293,34.9
15294,23.9
15296,24.8
15297,3.0
15298,18.5
15301,21.0
15303,5.6
15305,35.3
15306,33.7
15308,15.1
15309,57.1
15311,33.2
15312,25.0
15314,29.2
15317,17.7
15320,26.9
15321,29.5
15322,33.9
15331,12.1
15333,15.6
15334,28.8
15335,6.4
15336,30.6
15337,28.2
15343,13.2
15344,10.5
15345,22.4
15346,23.6
15347,7.2
15349,30.8
15351,21.6
15353,10.2
15354,15.3
15356,18.8
15357,14.3
15358,-9.8
15359,6.0
15360,9.0
15361,6.7
15362,31.7
15363,31.6
15366,21.7
15367,32.0
15369,36.0
15371,18.3
15372,44.2
15375,10.3
15377,16.7
15384,26.2
15385,30.8
15386,20.9
15388,29.5
15390,24.5
15393,28.6
15394,12.7
15396,8.2
15397,25.1
15403,22.8
15408,54.5
15409,28.5
15410,17.6
15411,22.3
15412,6.6
15414,16.9
15420,28.8
15422,15.0
15423,15.9
15424,5.6
15425,31.0
15428,5.7
15431,7.5
15432,33.9
15433,28.7
15434,18.6
15437,22.9
15438,23.6
15439,7.6
15445,30.0
15446,10.8
15455,25.1
15456,5.0
15457,14.1
15458,-4.7
15464,33.5
15465,31.6
15467,9.6
15469,31.9
15470,49.3
15471,27.0
15473,19.2
15474,21.2
15475,28.5
15476,6.5
15482,31.3
15488,11.7
15491,15.2
15492,9.5
15494,34.3
15495,13.3
15498,28.2
15502,11.7
15504,14.4
15506,13.7
15508,54.5
15515,24.5
15516,13.0
15520,31.3
15521,20.8
15522,23.5
15524,28.2
15525,27.3
15526,12.2
15528,21.7
15533,31.3
15534,25.9
15535,9.7
15537,11.9
15540,18.6
15542,18.1
15545,10.8
15551,19.8
15552,31.1
15553,33.0
15556,18.9
15557,-4.7
15558,11.8
15561,8.8
15563,18.8
15565,13.7
15566,16.1
15567,19.3
15568,18.3
15570,49.3
15578,25.9
15579,32.6
15582,17.0
15583,28.8
15584,34.2
15585,18.8
15586,14.7
15587,6.3
15588,24.0
15589,33.2
15590,33.4
15592,23.8
15595,10.8
15597,30.2
15598,13.2
15599,20.4
15603,29.0
15607,54.5
15610,16.6
15611,13.5
15614,13.9
15616,12.4
15617,13.8
15619,20.6
15620,33.9
15622,15.4
15624,23.2
15625,31.3
15626,18.8
15628,19.3
15630,12.9
15632,28.8
15633,30.6
15634,5.9
15635,28.4
15638,12.4
15641,17.1
15642,18.0
15645,13.3
15647,19.7
15652,5.8
15655,32.0
15656,5.7
15657,-7.2
15659,31.9
15664,18.1
15665,16.0
15666,14.6
15667,18.8
15668,11.2
15669,7.7
15670,46.8
15671,14.8
15676,19.6
15677,11.4
15679,29.1
15680,6.8
15681,23.2
15682,23.6
15683,29.5
15687,24.9
15689,6.4
15692,31.4
15693,27.9
15694,8.2
15695,29.7
15696,16.6
15697,16.1
15699,20.7
15700,12.5
15702,14.0
15703,13.2
15704,12.6
15705,35.5
15706,29.8
15707,54.5
15709,25.3
15710,18.1
15711,12.6
15714,34.6
15715,33.3
15717,31.8
15718,9.0
15719,23.6
15728,17.8
15730,35.5
15731,36.5
15732,24.6
15733,33.4
15735,25.8
15737,5.4
15738,34.7
15739,13.1
15741,5.9
15744,13.3
15746,36.0
15748,27.8
15750,7.2
15752,27.8
15755,30.3
15756,-2.1
15757,23.1
15759,28.4
15763,16.2
15769,51.9
15770,18.1
15771,7.4
15772,26.4
15777,23.5
15778,22.6
15781,31.3
15787,27.8
15794,15.9
15795,30.8
15796,35.8
15797,7.7
15798,8.2
15800,32.5
15803,20.6
15804,28.2
15805,18.9
15806,51.9
15807,33.8
15808,17.5
15811,7.4
15814,27.6
15816,19.6
15817,18.2
15818,28.8
15819,7.9
15820,24.9
15821,25.1
15822,20.8
15825,25.7
15827,13.7
15829,19.3
15831,33.9
15832,23.1
15836,17.4
15837,25.2
15840,29.2
15843,16.9
15844,13.3
15849,32.4
15852,27.0
15853,5.5
15854,16.6
15855,9.1
15856,-4.7
15859,17.5
15860,35.3
15862,23.2
15865,5.5
15868,49.3
15871,24.9
15873,7.1
15874,27.3
15876,26.7
15877,26.4
15878,5.1
15880,10.6
15881,28.8
15885,26.8
15888,20.4
15890,33.2
15891,31.5
15893,13.3
15894,14.8
15898,31.0
15900,26.1
15904,24.3
15905,18.1
15906,54.5
15907,33.4
15908,7.1
15911,6.7
15912,7.1
15914,32.1
15919,31.3
15923,21.5
15925,16.7
15928,14.6
15929,14.5
15931,28.8
15933,31.9
15936,11.6
15938,23.3
15940,7.8
15941,19.1
15942,28.0
15943,10.8
15948,15.5
15951,13.1
15953,14.3
15954,14.4
15955,-7.2
15956,9.0
15962,10.8
15969,49.3
15972,23.8
15973,13.7
15977,5.5
15981,26.2
15985,32.8
15986,32.1
15988,10.2
15991,27.4
15993,13.3
15996,29.3
15997,19.9
16006,54.5
16007,12.0
16009,16.1
16011,7.5
16012,33.4
16015,26.1
16016,28.4
16017,17.6
16018,31.3
16024,14.6
16030,31.3
16033,31.9
16038,20.4
16039,14.4
16042,11.3
16044,15.9
16046,35.1
16048,33.5
16050,7.4
16051,25.9
16053,5.3
16056,-7.2
16059,16.0
16060,16.6
16062,13.3
16064,34.3
16066,18.0
16068,46.8
16070,14.9
16072,30.3
16074,15.8
16078,34.5
16079,34.0
16080,26.2
16081,29.1
16082,16.3
16083,10.2
16087,8.7
16088,22.1
16093,10.8
16097,15.2
16098,32.2
16099,30.0
16101,6.8
16102,22.9
16103,14.4
16106,57.1
16107,32.5
16110,29.6
16111,7.4
16114,10.3
16116,35.9
16118,33.9
16122,35.4
16123,15.2
16124,30.0
16125,31.0
16126,35.2
16131,26.2
16132,8.4
16141,19.3
16143,23.6
16144,28.5
16152,10.5
16153,21.7
16155,-9.8
16161,34.2
16163,8.0
16166,11.8
16167,21.5
16168,44.2
16170,34.6
16171,7.8
16172,32.6
16173,28.7
16175,27.7
16177,35.8
16179,34.8
16180,7.0
16181,21.0
16184,13.0
16185,16.9
16187,13.0
16189,26.8
16190,35.4
16193,8.2
16194,10.4
16196,33.4
16197,8.2
16198,23.9
16199,16.5
16204,54.5
16205,19.4
16210,31.1
16214,35.3
16217,28.8
16219,31.3
16220,31.1
16221,27.8
16222,8.1
16223,7.0
16225,14.7
16226,19.6
16227,11.0
16228,7.8
16229,33.9
16230,7.7
16232,27.4
16235,7.7
16236,12.7
16240,15.3
16241,24.9
16242,13.3
16246,16.2
16248,31.3
16250,34.5
16253,14.9
16254,-4.7
16256,6.2
16257,6.8
16259,14.5
16261,5.3
16262,18.7
16263,7.7
16265,27.1
16267,49.3
16273,32.7
16275,24.1
16277,32.5
16278,17.6
16279,28.8
16284,24.0
16286,14.4
16287,28.8
16288,14.9
16291,13.3
16293,17.6
16294,31.0
16301,18.4
16305,57.1
16307,28.2
16308,14.5
16309,35.6
16310,14.4
16313,29.3
16315,28.0
16317,28.8
16318,10.7
16320,23.3
16321,9.4
16324,34.1
16327,31.6
16329,31.3
16330,23.5
16332,15.6
16333,6.7
16334,14.5
16337,7.5
16338,24.2
16339,27.7
16342,10.8
16343,8.2
16344,18.0
16347,8.2
16348,26.5
16353,16.9
16354,-7.2
16358,24.9
16360,26.4
16363,7.9
16364,6.8
16365,28.4
16367,49.3
16369,31.0
16371,26.8
16374,21.3
16376,9.1
16378,25.6
16379,28.8
16380,9.2
16383,27.9
16385,17.5
16389,9.4
16390,30.6
16391,33.7
16392,13.3
16396,9.7
16399,7.6
16400,30.1
16401,16.0
16402,24.8
16403,10.3
16404,57.1
16405,29.2
16406,30.9
16408,22.6
16411,16.8
16414,9.5
16415,21.4
16416,31.3
16417,24.6
16418,20.4
16422,29.8
16424,27.0
16426,28.1
16427,5.3
16429,31.3
16435,22.6
16436,9.3
16437,29.8
16438,24.6
16439,34.0
16442,15.9
16445,24.6
16447,20.3
16448,28.6
16452,22.1
16454,-7.2
16455,19.1
16456,26.8
16457,9.9
16458,5.9
16460,34.8
16461,25.5
16462,33.3
16466,49.3
16469,13.3
16470,15.5
16471,20.3
16474,9.0
16475,30.0
16476,22.3
16478,34.1
16479,26.2
16480,9.5
16482,15.8
16483,14.2
16487,10.8
16491,10.8
16492,27.2
16493,6.4
16494,26.0
16497,20.9
16498,33.7
16500,24.9
16501,26.9
16504,57.1
16505,9.6
16506,24.6
16510,21.0
16512,5.5
16515,16.8
16516,13.9
16517,33.9
16518,5.9
16523,29.5
16525,30.8
16527,13.1
16529,26.2
16531,18.0
16533,16.1
16541,26.2
16545,14.3
16550,19.8
16551,19.0
16553,-9.8
16554,29.9
16556,26.5
16558,23.8
16560,15.6
16561,27.3
16564,5.7
16567,44.2
16575,32.0
16578,24.7
16579,23.6
16582,35.1
16584,23.1
16585,15.2
16587,17.2
16588,26.3
16590,11.3
16591,5.6
16593,7.9
16594,17.1
16595,24.4
16597,16.0
16598,30.0
16600,11.8
16601,22.3
16603,51.9
16604,21.5
16605,33.7
16609,18.7
16611,32.3
16612,15.8
16613,26.6
16615,26.2
16616,33.3
16617,24.0
16621,30.7
16622,7.3
16623,17.1
16624,34.7
16626,17.9
16627,31.3
16628,9.0
16629,33.8
16637,31.1
16641,13.3
16642,5.7
16643,7.7
16645,8.0
16648,27.5
16649,11.0
16650,16.8
16652,33.6
16653,-4.7
16654,19.9
16657,23.3
16658,25.6
16664,18.9
16665,49.3
16666,32.3
16671,28.4
16674,24.1
16675,11.6
16677,28.8
16679,5.5
16680,15.2
16681,28.6
16682,27.6
16683,31.6
16686,21.2
16689,29.7
16690,13.3
16692,28.7
16693,27.6
16694,22.4
16695,34.5
16697,22.7
16699,14.5
16703,54.5
16705,23.3
16706,28.4
16709,13.0
16711,30.1
16714,27.7
16715,31.3
16716,34.7
16727,12.2
16728,31.3
16732,18.7
16736,22.4
16737,23.2
16738,32.4
16740,10.8
16741,34.7
16746,17.7
16747,11.7
16749,6.7
16752,-4.7
16754,22.5
16758,27.6
16759,8.9
16762,27.6
16763,20.3
16764,30.0
16765,49.3
16766,12.9
16768,20.8
16777,21.0
16778,28.8
16779,30.3
16783,21.4
16787,28.9
16789,30.9
16790,10.8
16793,15.3
16794,26.4
16796,9.6
16799,32.6
16801,16.4
16802,54.5
16805,25.6
16808,25.5
16812,25.6
16813,32.1
16815,33.9
16816,9.9
16819,33.1
16822,27.2
16827,28.8
16828,32.9
16829,28.6
16832,8.4
16833,11.8
16834,12.6
16835,11.5
16836,18.5
16837,20.8
16838,15.6
16839,21.6
16840,13.3
16844,14.2
16848,34.2
16849,18.1
16852,-7.2
16856,33.1
16857,24.8
16858,20.6
16859,23.9
16860,17.4
16862,15.0
16863,22.1
16864,19.9
16865,46.8
16866,13.3
16869,13.7
16870,15.1
16877,26.2
16882,22.8
16883,15.4
16886,7.5
16889,10.8
16893,16.1
16894,11.2
16895,34.1
16897,15.0
16901,15.7
16903,57.1
16904,29.4
16906,15.2
16915,33.9
16916,24.5
16917,33.6
16918,26.7
16920,20.1
16921,21.7
16923,19.2
16926,13.6
16927,26.2
16928,35.0
16930,7.0
16931,24.7
16933,35.1
16934,17.0
16937,32.5
16939,33.8
16940,23.6
16941,18.3
16942,15.0
16946,8.7
16947,28.2
16948,8.7
16950,24.1
16952,-9.8
16953,20.3
16955,13.0
16956,11.9
16959,24.0
16963,16.0
16965,46.8
16970,14.9
16972,28.8
16973,29.1
16974,18.5
16975,32.5
16976,24.0
16977,26.2
16980,18.7
16984,23.6
16987,12.4
16989,27.4
16990,8.2
16993,33.3
16997,6.5
16998,34.6
16999,15.9
17001,54.5
17002,20.6
17006,10.7
17011,30.9
17013,26.2
17019,17.3
17021,10.9
17025,6.2
17026,31.3
17029,28.5
17030,15.1
17032,19.7
17034,24.8
17036,10.3
17037,13.7
17038,8.9
17039,13.3
17050,13.7
17051,-2.1
17054,21.8
17056,28.1
17058,14.5
17059,25.5
17060,10.2
17062,16.8
17063,49.3
17067,22.2
17068,22.6
17072,21.1
17073,12.9
17074,25.3
17076,28.8
17078,6.5
17079,7.6
17081,24.6
17082,20.7
17088,15.9
17089,6.0
17090,5.3
17094,11.3
17097,33.2
17099,22.2
17100,7.2
17101,54.5
17102,31.5
17104,32.0
17105,18.6
17106,12.5
17107,29.6
17108,21.3
17111,17.4
17114,31.3
17116,28.2
17117,8.2
17118,15.7
17119,13.1
17120,17.9
17121,5.5
17125,12.6
17126,31.3
17132,9.8
17135,17.2
17138,10.8
17139,24.1
17142,18.6
17146,31.5
17147,33.9
17150,-4.7
17151,30.6
17152,17.5
17153,26.7
17154,20.4
17155,6.5
17156,15.3
17157,11.4
17158,33.7
17160,31.4
17161,14.3
17163,46.8
17164,22.8
17166,8.3
17167,26.4
17169,27.0
17171,30.5
17173,15.8
17176,28.8
17177,18.8
17178,24.4
17182,26.2
17183,29.9
17185,16.3
17188,13.3
17191,6.3
17195,35.4
17201,54.5
17203,32.3
17207,34.4
17208,35.1
17210,27.4
17213,31.3
17215,31.3
17216,25.1
17221,25.3
17225,28.8
17227,22.3
17228,31.7
17229,25.9
17230,19.1
17231,32.1
17232,22.0
17233,7.8
17238,9.9
17239,13.3
17240,10.7
17242,13.1
17244,34.2
17245,16.5
17248,19.8
17251,-7.2
17253,20.9
17254,13.9
17256,17.3
17257,18.8
17260,23.9
17263,46.8
17265,30.8
17266,30.8
17267,30.7
17269,7.5
17271,29.2
17274,22.4
17275,26.2
17280,22.7
17282,8.1
17283,20.7
17285,19.1
17287,16.6
17288,8.2
17289,7.1
17291,22.8
17292,26.3
17297,14.3
17300,51.9
17301,29.6
17302,23.7
17303,10.1
17305,11.4
17307,8.1
17308,33.4
17311,24.2
17312,26.2
17316,10.5
17325,33.9
17329,28.5
17330,28.6
17332,21.0
17333,25.0
17335,25.6
17337,15.9
17340,19.8
17342,18.6
17343,18.5
17344,16.8
17349,-2.1
17350,14.9
17352,32.8
17355,19.9
17361,51.9
17362,16.2
17364,14.4
17366,24.0
17368,25.1
17370,27.0
17372,24.8
17373,14.5
17374,35.5
17375,31.3
17378,18.4
17380,19.6
17381,20.3
17383,15.4
17384,17.7
17387,15.9
17389,22.5
17390,34.5
17392,27.5
17394,30.7
17396,13.2
17398,24.0
17399,54.5
17400,32.8
17401,20.1
17403,34.3
17404,26.5
17405,14.3
17408,8.5
17411,11.5
17412,28.8
17416,23.4
17419,19.5
17421,35.8
17422,25.6
17423,8.4
17424,33.9
17425,34.4
17426,24.9
17429,19.3
17430,31.6
17433,28.8
17435,24.1
17437,13.3
17439,13.1
17441,25.6
17444,30.4
17449,-4.7
17450,25.4
17451,26.5
17458,20.0
17459,10.4
17460,34.2
17462,49.3
17465,19.5
17467,20.5
17468,17.4
17471,8.2
17472,15.6
17474,31.3
17477,25.1
17478,27.7
17480,20.1
17484,8.0
17485,21.6
17486,13.3
17488,32.1
17489,16.6
17492,11.6
17495,25.6
17497,9.7
17500,54.5
17504,31.7
17505,21.6
17506,35.0
17507,15.8
17510,5.5
17511,29.0
17512,31.3
17516,28.2
17518,29.4
17520,30.9
17524,31.3
17525,20.1
17526,23.5
17527,30.8
17529,16.2
17534,20.5
17537,10.8
17540,25.3
17541,17.5
17542,9.8
17543,32.8
17547,21.5
17548,33.2
17549,-4.7
17551,24.5
17552,8.6
17553,11.0
17554,10.2
17556,11.6
17557,27.8
17561,49.3
17562,29.4
17565,24.8
17568,18.8
17570,14.3
17572,19.4
17574,26.2
17578,12.8
17579,30.0
17581,35.9
17582,18.8
17584,27.2
17586,12.9
17587,10.8
17588,35.4
17589,25.8
17593,20.2
17596,30.1
17599,57.1
17603,30.4
17604,12.6
17605,14.0
17606,22.2
17607,27.1
17610,22.7
17611,31.3
17612,35.8
17613,21.1
17614,11.7
17617,34.1
17618,16.6
17624,28.8
17625,28.8
17626,6.1
17627,19.3
17628,10.9
17630,30.6
17633,8.1
17635,7.4
17637,15.9
17640,15.8
17641,26.0
17644,25.4
17645,6.2
17646,8.3
17647,28.2
17648,34.1
17649,-7.2
17650,19.3
17655,29.5
17657,13.4
17660,6.0
17661,46.8
17665,21.8
17667,26.7
17668,10.5
17669,21.4
17674,26.2
17675,14.7
17677,8.0
17679,33.0
17684,9.8
17686,10.8
17689,28.2
17692,16.3
17696,30.1
17699,57.1
17700,12.3
17702,22.0
17704,29.5
17706,23.1
17708,18.8
17712,33.9
17714,26.0
17715,15.9
17716,11.1
17717,18.3
17718,36.0
17721,16.4
17723,25.9
17724,26.2
17726,16.0
17729,21.3
17732,17.6
17733,20.2
17736,23.6
17737,19.1
17740,9.1
17742,21.7
17743,13.4
17745,7.6
17746,11.6
17747,29.8
17748,-7.2
17749,30.4
17757,28.4
17759,24.0
17761,44.2
17763,7.3
17764,10.9
17765,23.7
17768,33.2
17769,14.6
17773,20.3
17774,26.2
17779,14.6
17780,24.0
17783,18.4
17786,8.2
17787,31.4
17789,33.6
17790,14.7
17791,27.1
17792,27.5
17793,17.8
17794,28.8
17795,32.4
17797,34.5
17798,51.9
17799,13.3
17800,34.9
17805,11.1
17810,28.8
17812,28.8
17814,35.2
17815,25.7
17816,25.6
17818,33.3
17819,25.9
17820,12.1
17821,16.3
17822,33.9
17824,24.5
17825,31.1
17826,22.4
17827,9.8
17828,30.6
17829,20.9
17830,35.2
17831,15.6
17832,34.4
17833,25.8
17836,13.3
17840,12.4
17841,27.6
17842,30.1
17843,34.3
17844,26.9
17846,29.8
17847,9.4
17848,-2.1
17849,20.7
17850,28.7
17853,17.1
17854,34.1
17856,8.2
17857,30.1
17860,49.3
17861,25.8
17867,34.7
17872,28.8
17875,29.7
17880,10.2
17881,13.2
17884,25.4
17885,13.3
17886,15.0
17890,9.9
17894,16.7
17895,33.6
17896,23.2
17898,54.5
17900,29.5
17901,21.9
17902,30.0
17904,9.5
17906,15.3
17907,24.2
17910,31.3
17911,14.5
17912,35.3
17913,28.5
17914,19.0
17915,13.2
17916,24.5
17917,16.7
17918,16.5
17919,11.7
17920,16.6
17923,31.3
17924,30.4
17925,13.7
17927,33.7
17928,8.4
17932,8.0
17933,28.9
17935,10.8
17936,21.5
17938,31.4
17940,33.1
17944,15.6
17945,11.6
17946,33.6
17947,-7.2
17952,10.8
17954,35.0
17956,26.3
17957,9.5
17959,46.8
17961,11.4
17963,30.6
17964,24.9
17965,8.1
17967,23.4
17972,18.8
17973,28.8
17975,34.5
17981,18.3
17985,10.8
17986,14.3
17987,8.1
17996,29.1
17997,57.1
17998,13.7
18001,20.4
18003,7.5
18004,16.8
18005,9.2
18006,5.9
18007,7.3
18008,25.5
18010,31.3
18013,12.6
18015,12.5
18016,13.3
18017,6.8
18018,8.0
18019,10.7
18022,28.8
18029,10.2
18030,11.4
18031,17.1
18034,11.1
18035,15.9
18037,20.8
18039,32.2
18042,17.2
18046,14.0
18048,-7.2
18050,33.1
18053,6.4
18054,22.8
18055,35.7
18056,25.5
18059,20.0
18060,49.3
18061,8.4
18062,21.8
18064,29.0
18065,16.7
18067,28.0
18068,16.6
18071,20.0
18072,26.2
18073,25.3
18076,26.4
18079,7.0
18082,17.9
18083,34.7
18084,10.8
18088,20.5
18089,6.3
18090,21.9
18094,31.2
18095,17.2
18097,6.5
18098,57.1
18099,14.3
18101,20.5
18105,30.2
18108,11.9
18110,31.3
18111,12.0
18113,30.6
18115,10.0
18118,31.2
18119,25.3
18122,26.2
18123,29.7
18124,13.0
18126,18.3
18127,14.3
18130,23.3
18132,7.6
18134,6.1
18135,26.2
18136,27.3
18139,26.2
18145,12.2
18146,26.1
18147,-9.8
18149,17.0
18154,33.3
18155,29.7
18158,22.6
18159,44.2
18162,34.9
18163,27.3
18168,28.3
18169,25.0
18171,12.1
18172,23.6
18177,9.1
18178,30.2
18184,35.9
18185,5.6
18186,26.9
18187,23.5
18188,26.2
18195,8.8
18196,54.5
18201,7.1
18204,31.8
18208,28.8
18209,22.3
18210,8.1
18213,17.3
18215,21.9
18218,23.0
18221,33.9
18222,19.4
18223,5.3
18224,13.6
18225,8.7
18228,15.3
18230,12.6
18232,23.5
18234,10.8
18236,24.8
18238,17.3
18239,9.3
18240,32.1
18241,34.5
18246,-4.7
18254,17.4
18256,5.1
18258,51.9
18261,10.4
18264,18.1
18266,27.8
18268,28.5
18269,22.1
18271,31.3
18272,20.8
18274,16.4
18275,13.6
18282,5.3
18283,13.3
18285,31.8
18286,33.8
18289,12.2
18291,29.0
18292,16.4
18294,12.2
18296,54.5
18298,20.6
18299,14.2
18300,26.2
18306,24.3
18309,28.8
18311,7.6
18312,17.7
18313,18.9
18314,32.4
18321,31.3
18323,15.1
18324,7.6
18326,14.7
18329,33.5
18330,16.7
18333,10.8
18338,11.7
18340,26.4
18341,15.7
18343,5.8
18344,10.1
18345,-4.7
18347,7.5
18348,6.5
18350,30.0
18358,46.8
18362,7.7
18363,33.2
18365,12.6
18371,26.2
18376,7.7
18377,15.2
18378,20.9
18380,24.7
18383,10.8
18387,26.9
18389,22.6
18392,5.4
18396,54.5
18399,11.8
18400,30.0
18405,31.7
18406,19.1
18408,33.9
18413,20.3
18414,20.3
18420,28.8
18423,31.6
18429,26.7
18431,11.0
18434,15.9
18436,15.7
18437,20.5
18438,33.1
18440,32.7
18441,14.4
18446,-7.2
18448,9.0
18458,46.8
18461,33.2
18462,26.7
18465,5.1
18466,7.9
18467,17.2
18470,23.6
18472,21.8
18474,12.2
18475,24.7
18476,22.2
18479,14.9
18481,12.4
18482,16.9
18483,10.8
18484,13.0
18488,28.4
18491,19.1
18493,30.8
18494,19.2
18496,57.1
18501,31.8
18503,18.5
18504,6.9
18506,17.0
18507,12.0
18508,36.5
18513,15.1
18515,34.6
18516,31.1
18521,26.2
18526,33.9
18533,26.2
18534,29.8
18535,19.1
18537,24.7
18540,31.1
18545,-9.8
18547,31.1
18549,24.8
18557,46.8
18559,19.6
18561,12.3
18563,12.1
18565,10.5
18571,23.6
18573,23.0
18575,18.0
18577,30.7
18579,27.5
18581,15.3
18583,8.2
18584,28.4
18585,20.5
18589,35.4
18591,35.8
18594,54.5
18595,15.5
18598,29.2
18600,14.4
18603,13.7
18604,21.5
18605,6.3
18606,14.4
18607,28.8
18608,32.1
18609,18.6
18613,29.9
18614,31.2
18616,21.8
18619,33.9
18621,35.7
18624,17.0
18629,31.5
18630,31.2
18632,13.3
18633,10.0
18637,6.6
18641,23.4
18642,31.3
18644,-4.7
18647,32.6
18650,16.2
18651,23.0
18654,32.6
18657,51.9
18658,29.9
18659,17.8
18660,8.6
18662,8.3
18664,20.0
18666,35.8
18669,28.8
18671,19.7
18674,14.5
18678,18.9
18680,14.0
18681,13.3
18682,28.0
18683,18.0
18684,19.3
18685,20.9
18686,29.5
18688,9.7
18690,17.0
18693,22.9
18694,54.5
18699,14.2
18700,15.5
18701,34.2
18703,26.1
18704,28.5
18705,23.0
18707,28.8
18709,23.9
18711,13.0
18712,26.2
18715,21.4
18716,15.8
18717,17.9
18719,31.3
18720,31.1
18722,16.7
18723,23.3
18725,23.5
18727,33.6
18732,10.8
18737,34.6
18741,27.3
18743,17.6
18744,-4.7
18745,11.8
18746,9.1
18748,17.7
18749,22.0
18752,6.0
18756,49.3
18757,28.8
18758,18.7
18759,18.7
18760,19.1
18765,23.5
18769,26.2
18770,19.5
18773,28.5
18782,10.8
18783,11.4
18785,22.5
18786,30.6
18788,9.5
18791,11.9
18794,57.1
18798,19.5
18801,10.7
18804,28.1
18805,28.5
18806,33.9
18807,18.8
18809,25.8
18811,7.6
18812,34.3
18817,28.5
18819,28.8
18821,35.6
18822,8.8
18824,22.2
18826,18.0
18828,10.8
18829,29.6
18830,17.6
18831,35.0
18832,15.9
18834,25.2
18835,10.2
18838,11.3
18839,12.2
18840,26.2
18842,29.1
18843,6.6
18844,-7.2
18845,9.4
18848,24.1
18849,33.8
18850,12.8
18852,16.8
18856,46.8
18857,29.4
18860,30.2
18861,32.6
18863,30.9
18865,34.5
18866,16.7
18868,35.5
18869,26.2
18871,13.0
18872,12.0
18873,33.4
18874,17.4
18881,8.2
18882,15.7
18883,9.0
18884,15.6
18892,51.9
18894,21.7
18896,17.1
18898,29.1
18900,23.6
18902,7.8
18903,20.7
18906,26.2
18908,12.5
18909,27.2
18914,6.5
18918,33.9
18919,29.3
18923,31.7
18924,13.2
18925,21.5
18929,30.7
18930,13.3
18933,15.4
18935,21.5
18936,29.2
18939,15.6
18940,8.3
18941,34.8
18942,-4.7
18943,24.6
18944,28.7
18948,21.1
18949,5.3
18951,10.2
18952,15.9
18954,14.6
18955,51.9
18958,9.4
18961,29.9
18962,15.0
18963,35.2
18964,17.7
18965,35.8
18967,35.1
18968,31.3
18969,16.3
18974,29.8
18978,19.9
18980,15.9
18981,31.6
18986,34.5
18987,22.1
18988,24.8
18990,18.8
18991,17.3
18993,54.5
18998,26.0
18999,6.3
19001,27.4
19005,31.3
19006,34.5
19007,10.2
19009,12.7
19013,7.3
19015,19.9
19016,33.0
19017,33.9
19019,7.9
19020,35.0
19023,33.0
19024,22.4
19027,34.9
19030,33.6
19031,10.8
19032,34.5
19033,29.0
19036,25.5
19040,21.7
19041,19.6
19042,21.3
19043,-4.7
19044,20.0
19045,33.5
19046,21.1
19050,11.3
19052,29.7
19054,7.4
19055,51.9
19057,29.8
19058,30.0
19059,22.6
19061,29.7
19063,10.4
19067,28.8
19068,30.3
19070,19.7
19071,25.7
19072,17.2
19076,14.3
19077,18.2
19080,13.3
19086,12.3
19089,28.6
19092,54.5
19094,21.8
19096,20.7
19100,19.6
19102,5.6
19103,7.4
19105,31.3
19106,6.3
19109,21.3
19110,14.7
19112,26.2
19113,9.7
19115,5.7
19116,26.1
19118,28.8
19120,27.6
19121,25.3
19122,5.1
19124,27.4
19127,20.2
19128,14.2
19130,8.2
19133,34.4
19134,7.1
19135,13.5
19137,20.4
19138,9.3
19141,0.5
19142,31.8
19145,7.1
19146,31.9
19149,13.3
19152,57.1
19153,17.9
19154,32.1
19155,14.9
19156,27.9
19157,29.2
19161,16.0
19162,17.6
19163,26.1
19164,18.9
19166,33.9
19168,13.5
19171,30.6
19173,12.1
19176,27.4
19177,6.7
19178,26.2
19182,21.6
19184,28.8
19186,14.1
19187,21.8
19189,34.1
19190,28.8
19193,10.8
19195,5.4
19196,35.0
19198,20.7
19203,-7.2
19204,20.3
19211,33.0
19215,44.2
19216,26.4
19220,11.7
19221,21.6
19222,25.0
19223,18.2
19224,29.7
19225,31.8
19228,23.6
19229,15.4
19230,35.3
19233,9.8
19235,9.2
19236,20.0
19237,13.3
19238,25.6
19240,8.2
19241,15.6
19242,26.8
19245,24.2
19246,19.3
19248,8.0
19251,6.4
19252,54.5
19254,8.3
19255,18.4
19257,23.9
19259,31.3
19262,20.0
19264,28.8
19266,9.1
19268,24.1
19273,15.9
19275,22.7
19276,31.3
19278,6.4
19281,31.3
19283,9.8
19284,27.4
19285,15.9
19289,13.3
19290,12.4
19293,26.9
19295,35.1
19297,18.9
19299,5.1
19300,13.3
19301,25.1
19302,-4.7
19306,11.1
19308,19.8
19311,15.6
19314,49.3
19316,10.0
19318,33.2
19321,15.7
19323,34.9
19326,28.8
19327,24.6
19328,16.5
19332,15.0
19333,8.9
19336,18.3
19337,11.5
19338,23.7
19339,13.3
19340,18.8
19342,13.8
19343,10.1
19347,5.6
19348,29.4
19349,15.4
19351,57.1
19352,34.0
19353,14.4
19356,31.6
19363,35.8
19364,31.3
19365,34.9
19367,33.4
19372,14.3
19374,30.1
19377,28.8
19379,30.6
19380,23.1
19386,9.9
19389,10.8
19391,9.0
19396,23.6
19400,21.0
19401,-7.2
19405,21.9
19407,26.5
19408,10.5
19410,25.2
19414,46.8
19416,34.5
19418,35.0
19420,33.4
19421,27.6
19422,12.3
19423,33.6
19426,26.2
19427,18.5
19432,29.5
19433,19.9
19434,32.3
19436,13.0
19439,8.2
19441,10.9
19442,14.5
19447,24.5
19448,15.6
19449,14.4
19450,51.9
19452,32.8
19458,21.1
19462,10.1
19463,21.0
19466,35.2
19472,16.7
19473,19.8
19475,36.5
19476,15.5
19479,17.6
19481,27.0
19482,14.5
19483,32.7
19484,31.9
19487,13.3
19493,25.1
19495,30.9
19499,24.0
19501,-2.1
19502,22.7
19503,28.6
19509,12.0
19510,33.8
19512,25.1
19513,51.9
19515,24.9
19518,8.9
19523,19.6
19525,31.3
19528,31.8
19530,34.8
19532,24.4
19533,27.4
19534,22.6
19536,5.3
19537,15.9
19538,7.0
19540,26.7
19542,20.0
19543,19.8
19545,9.0
19550,54.5
19553,32.2
19555,17.6
19557,26.5
19558,35.0
19559,30.8
19563,28.8
19567,8.9
19569,13.1
19571,9.8
19572,6.0
19573,17.8
19574,23.6
19575,33.9
19577,6.6
19579,28.6
19580,27.3
19583,13.3
19587,30.7
19588,13.3
19589,35.2
19590,33.3
19592,26.0
19594,9.6
19596,12.5
19597,34.3
19599,8.5
19600,-2.1
19602,19.3
19603,30.4
19605,17.3
19608,33.3
19610,13.0
19611,34.8
19612,51.9
19613,15.2
19614,22.7
19617,29.4
19618,32.2
19620,24.7
19621,21.2
19622,8.9
19624,28.8
19626,23.9
19627,11.9
19630,35.3
19631,23.9
19632,35.5
19638,15.9
19639,13.5
19641,29.8
19643,10.1
19645,22.8
19647,24.8
19650,54.5
19651,30.9
19652,34.8
19656,25.1
19658,15.0
19660,17.9
19661,17.9
19662,28.8
19663,26.5
19664,29.4
19667,29.7
19668,7.6
19669,15.9
19671,31.8
19675,31.3
19677,5.6
19678,10.2
19679,18.4
19680,33.3
19681,28.0
19683,19.4
19684,29.2
19687,10.8
19689,17.5
19692,5.3
19693,27.3
19696,9.4
19697,22.4
19698,22.8
19700,-4.7
19701,26.8
19702,24.7
19704,18.4
19705,31.1
19707,17.6
19708,31.8
19710,25.0
19712,14.3
19713,49.3
19715,19.0
19718,20.2
19720,31.1
19721,26.9
19722,14.9
19725,28.8
19726,25.4
19727,6.6
19728,33.6
19729,10.5
19730,12.7
19731,17.4
19732,20.3
19733,9.5
19736,26.9
19737,13.3
19739,6.9
19740,18.4
19742,34.5
19743,30.2
19745,13.3
19749,57.1
19754,22.7
19758,24.3
19761,14.5
19762,12.2
19763,31.3
19766,22.8
19767,23.2
19768,13.6
19773,31.5
19775,28.8
19776,27.9
19777,25.8
19778,31.8
19779,29.5
19781,26.4
19783,10.4
19785,19.5
19786,26.5
19787,13.3
19789,15.4
19790,11.1
19793,30.6
19796,30.6
19798,8.1
19799,11.9
19800,-7.2
19801,5.6
19803,19.9
19805,13.6
19806,12.7
19807,32.8
19809,26.1
19811,6.6
19812,46.8
19816,35.6
19817,18.1
19819,8.1
19820,10.5
19824,28.8
19825,14.1
19829,19.7
19831,12.9
19832,24.6
19833,21.7
19835,10.9
19837,10.8
19840,30.4
19847,9.9
19848,12.5
19850,57.1
19852,15.8
19854,15.1
19855,7.3
19857,6.5
19859,12.7
19861,9.1
19862,36.5
19863,8.0
19864,5.9
19865,27.0
19867,16.3
19869,16.1
19870,21.6
19874,26.2
19876,20.5
19887,23.6
19890,29.9
19891,34.6
19894,13.3
19896,35.9
19897,6.6
19900,-9.8
19902,9.7
19903,32.8
19904,30.4
19905,25.9
19906,34.3
19908,17.2
19910,7.2
19911,23.4
19912,46.8
19914,9.8
19917,30.2
19918,31.5
19919,9.1
19921,12.2
19922,29.8
19924,26.2
19925,6.1
19927,20.1
19929,21.0
19930,23.2
19931,31.2
19934,30.5
19935,27.7
19937,8.2
19938,32.5
19940,33.0
19943,15.8
19945,28.0
19947,27.6
19948,54.5
19949,14.6
19950,34.8
19951,33.9
19952,35.2
19953,24.1
19954,32.1
19955,8.4
19956,26.5
19958,31.6
19961,28.8
19963,14.7
19969,20.4
19973,8.8
19974,33.9
19976,33.9
19977,18.4
19978,12.1
19979,34.7
19981,24.6
19982,9.1
19984,13.6
19986,13.3
19987,12.6
19991,31.0
19992,18.3
19993,28.1
19994,9.2
19996,31.4
19997,25.8
19998,-4.7
20002,32.1
20004,25.4
20006,32.6
20008,27.2
20011,49.3
20015,12.4
20016,9.1
20017,32.1
20018,5.0
20022,18.5
20023,28.8
20024,7.3
20027,6.3
20028,9.8
20029,14.7
20031,22.4
20033,16.9
20035,30.1
20036,10.8
20038,25.7
20040,18.0
20041,18.8
20043,32.2
20045,14.5
20048,57.1
20054,26.3
20055,26.5
20060,18.1
20061,31.3
20064,33.3
20066,20.7
20067,28.1
20069,23.4
20070,8.4
20073,31.3
20074,7.4
20075,13.8
20077,28.4
20079,27.7
20080,31.3
20081,27.7
20082,23.6
20085,10.8
20086,20.1
20089,20.9
20093,20.5
20094,8.0
20095,23.4
20098,6.2
20099,-4.7
20100,29.8
20101,32.8
20103,25.3
20104,17.0
20105,12.5
20109,21.2
20111,49.3
20114,17.6
20115,20.8
20116,26.9
20122,27.7
20123,28.8
20125,7.7
20127,30.3
20133,15.9
20135,10.8
20137,18.0
20143,23.5
20147,35.8
20148,54.5
20150,24.5
20152,25.5
20155,16.8
20156,35.8
20159,28.5
20161,33.9
20163,21.6
20164,10.0
20167,19.8
20171,21.2
20172,5.4
20173,28.8
20178,34.4
20181,27.2
20182,9.9
20183,5.1
20184,24.8
20186,13.3
20187,22.2
20188,25.9
20191,34.3
20197,14.0
20198,-7.2
20202,9.8
20206,11.0
20209,11.5
20210,46.8
20212,18.0
20213,5.6
20214,21.0
20217,27.5
20218,27.1
20219,5.9
20220,21.5
20222,26.2
20225,6.5
20227,17.4
20231,18.7
20232,32.4
20235,28.6
20236,10.8
20238,23.1
20241,35.6
20244,16.5
20246,24.9
20248,54.5
20249,15.7
20250,13.8
20253,22.0
20255,17.8
20256,32.6
20257,13.1
20258,19.9
20260,33.9
20262,22.5
20263,34.3
20264,16.7
20266,21.0
20267,18.0
20269,16.5
20270,31.9
20272,15.5
20273,28.8
20274,20.2
20276,8.1
20278,18.2
20279,16.0
20283,6.4
20285,26.2
20286,25.7
20287,29.7
20289,30.5
20290,11.4
20291,14.4
20294,33.7
20297,7.8
20298,-9.8
20300,6.5
20301,24.4
20302,18.6
20304,23.2
20308,9.5
20309,27.3
20311,44.2
20312,9.2
20313,21.4
20314,34.8
20316,18.3
20319,28.5
20321,11.6
20322,28.9
20323,23.6
20324,26.8
20325,19.9
20326,12.5
20328,26.0
20332,8.1
20334,20.3
20335,5.6
20336,22.3
20342,8.4
20344,29.3
20346,54.5
20348,31.0
20349,8.3
20351,13.8
20353,19.9
20354,9.8
20357,31.4
20360,28.8
20361,9.5
20365,25.6
20367,9.3
20368,16.6
20370,30.4
20371,15.4
20372,33.9
20373,5.7
20375,6.8
20376,15.6
20379,23.3
20381,6.0
20384,10.8
20385,35.8
20387,27.3
20388,25.6
20389,23.2
20390,22.1
20391,11.5
20395,31.2
20396,17.4
20397,-4.7
20398,19.2
20399,21.1
20405,19.8
20406,14.6
20407,8.0
20409,49.3
20410,11.7
20411,11.3
20413,29.6
20414,13.7
20415,21.3
20416,28.9
20417,6.8
20421,28.8
20422,5.9
20423,7.5
20424,11.9
20427,9.9
20429,14.5
20430,34.0
20434,13.3
20435,35.6
20437,20.2
20439,35.2
20441,13.6
20444,18.6
20445,22.6
20447,54.5
20448,34.8
20453,17.8
20454,35.7
20458,17.8
20459,28.8
20464,17.0
20465,20.9
20466,20.4
20468,11.0
20471,28.8
20472,8.1
20473,23.8
20477,16.7
20478,9.5
20483,9.8
20484,10.8
20490,29.1
20491,24.6
20497,-4.7
20498,6.7
20503,10.1
20507,12.7
20508,9.0
20509,46.8
20514,32.8
20515,13.9
20516,16.5
20517,28.1
20518,19.0
20520,31.3
20521,28.8
20524,34.6
20526,10.7
20527,7.4
20528,16.4
20530,22.5
20532,6.3
20533,13.1
20534,10.8
20535,33.6
20537,31.4
20538,10.1
20541,31.7
20542,32.4
20543,5.4
20544,7.2
20545,17.5
20546,54.5
20547,6.3
20549,21.8
20551,8.6
20555,10.6
20557,23.0
20559,31.3
20560,20.1
20561,22.2
20567,28.9
20568,20.1
20569,24.0
20571,23.1
20572,28.8
20574,16.8
20575,11.0
20576,7.6
20580,9.4
20581,17.1
20584,15.9
20585,15.0
20587,22.1
20594,30.2
20596,-7.2
20599,31.6
20600,14.4
20602,9.8
20603,9.5
20606,29.8
20609,46.8
20611,13.0
20612,22.2
20614,12.8
20615,21.9
20616,17.2
20619,27.4
20621,26.2
20623,12.6
20624,19.3
20625,19.3
20627,14.3
20628,6.3
20630,34.2
20633,31.0
20634,8.2
20636,32.0
20641,33.3
20643,6.0
20644,9.7
20645,51.9
20646,26.1
20650,24.6
20652,30.2
20653,33.5
20655,29.4
20656,23.7
20658,23.6
20659,12.7
20660,22.8
20668,5.2
20669,7.6
20670,33.9
20671,13.2
20672,33.9
20673,29.4
20674,32.1
20675,22.6
20680,28.1
20681,30.8
20682,10.8
20683,30.3
20684,29.9
20686,24.1
20693,27.7
20695,31.3
20696,-2.1
20698,16.7
20702,25.4
20704,23.6
20705,32.5
20707,27.5
20708,51.9
20709,17.7
20711,22.1
20712,29.1
20715,14.0
20716,35.0
20717,11.8
20719,7.4
20720,31.3
20721,7.9
20722,28.4
20723,21.0
20725,8.4
20729,31.6
20730,31.5
20731,24.6
20732,13.3
20734,14.7
20739,34.4
20742,15.6
20743,7.7
20744,26.8
20745,51.9
20747,9.9
20749,24.7
20750,18.8
20752,23.2
20753,5.1
20756,14.7
20757,26.2
20758,6.2
20759,16.2
20761,5.0
20762,28.1
20765,29.6
20770,31.3
20771,30.0
20773,33.0
20777,19.1
20781,14.2
20782,30.3
20783,10.8
20784,19.2
20789,11.6
20794,5.7
20795,-4.7
20797,8.2
20800,30.1
20801,16.0
20803,33.2
20805,13.4
20807,49.3
20809,19.7
20810,34.3
20811,9.7
20812,15.2
20815,35.3
20816,23.6
20818,29.5
20819,28.8
20823,19.1
20824,13.3
20825,11.9
20826,31.6
20827,34.1
20828,13.2
20829,24.2
20830,23.0
20833,13.3
20835,33.6
20836,21.3
20838,5.1
20839,34.2
20841,12.7
20843,8.3
20844,12.1
20845,57.1
20846,28.2
20847,36.0
20852,14.0
20855,10.8
20856,24.5
20857,31.3
20858,34.9
20859,7.2
20860,30.8
20862,5.5
20863,10.2
20865,28.5
20866,19.0
20869,12.2
20870,31.3
20871,7.0
20872,25.0
20873,6.4
20875,20.2
20876,34.4
20881,12.5
20882,10.8
20884,26.2
20887,6.1
20888,5.8
20893,21.5
20895,-7.2
20897,17.6
20898,15.3
20900,17.6
20901,7.9
20903,15.0
20908,46.8
20910,17.3
20917,17.0
20919,13.9
20920,26.2
20921,6.9
20928,18.7
20929,34.5
20930,17.4
20932,10.8
20934,23.6
20935,32.2
20936,16.7
20940,24.7
20942,23.1
20944,57.1
20945,21.1
20946,13.4
20954,12.8
20956,7.1
20957,33.9
20959,5.4
20960,25.1
20961,17.6
20968,8.3
20970,28.8
20971,35.6
20972,33.6
20976,19.1
20979,19.5
20980,28.4
20982,18.5
20985,18.8
20986,34.4
20987,28.7
20988,11.9
20991,19.9
20993,22.8
20994,14.6
20995,-7.2
20999,11.1
21004,11.3
21006,35.7
21007,46.8
21009,6.1
21010,21.4
21011,8.4
21012,32.4
21014,18.7
21015,22.8
21016,28.5
21017,30.8
21019,26.2
21021,35.8
21022,13.6
21023,5.7
21026,33.6
21028,13.3
21032,8.2
21037,14.1
21038,34.3
21040,30.1
21041,15.4
21043,23.3
21044,51.9
21045,18.9
21047,12.1
21050,12.2
21052,25.5
21053,14.4
21054,22.5
21056,26.2
21057,17.6
21058,26.7
21061,15.6
21064,34.1
21065,12.1
21066,35.6
21067,19.9
21068,33.9
21070,26.1
21071,30.4
21072,27.5
21073,16.2
21076,33.1
21081,10.8
21083,32.2
21084,28.5
21090,14.6
21092,26.5
21093,23.2
21094,-2.1
21098,10.6
21103,24.4
21104,35.4
21105,11.6
21106,51.9
21110,17.0
21113,8.5
21116,27.9
21117,19.8
21118,31.3
21119,30.8
21120,12.3
21121,35.8
21123,11.7
21125,22.6
21126,14.4
21127,18.3
21128,33.3
21131,13.3
21133,13.5
21135,20.4
21136,27.4
21138,33.8
21141,11.1
21143,54.5
21146,28.1
21150,22.4
21151,15.8
21154,21.3
21155,28.8
21156,31.6
21158,35.1
21159,12.6
21163,24.3
21164,31.8
21167,25.4
21168,17.0
21169,31.3
21171,19.1
21172,7.9
21173,26.7
21175,35.7
21176,34.7
21180,13.5
21181,13.3
21182,11.2
21184,8.9
21187,28.7
21193,-4.7
21198,33.4
21203,17.1
21206,49.3
21207,34.1
21211,18.3
21213,16.3
21214,22.3
21218,28.8
21222,8.1
21225,32.1
21227,30.6
21231,13.3
21232,19.3
21235,8.9
21238,32.3
21239,8.8
21242,9.2
21243,57.1
21247,5.8
21248,26.6
21249,23.2
21251,24.0
21252,34.0
21254,16.5
21256,31.3
21260,13.2
21262,14.4
21268,28.8
21270,11.5
21272,23.4
21280,8.2
21282,26.5
21290,18.9
21291,8.2
21292,14.2
21293,0.5
21296,35.3
21297,25.0
21298,16.2
21299,5.2
21300,32.1
21301,23.6
21304,54.5
21306,12.4
21309,25.5
21311,19.7
21312,31.0
21313,8.1
21315,21.8
21316,33.9
21318,17.2
21328,26.2
21331,34.6
21333,23.1
21336,9.7
21337,15.0
21340,23.7
21341,33.9
21343,31.4
21348,6.7
21351,5.7
21352,33.6
21353,-4.7
21355,17.1
21362,6.7
21363,6.5
21364,7.5
21366,44.2
21367,34.7
21370,30.4
21372,25.7
21374,28.2
21377,7.6
21378,15.1
21379,23.6
21380,7.3
21382,7.2
21385,23.1
21389,11.0
21391,8.2
21393,13.0
21395,12.8
21397,28.9
21398,24.3
21399,20.9
21400,9.3
21402,57.1
21404,7.7
21414,31.3
21416,12.2
21417,6.5
21418,27.9
21419,20.9
21421,25.3
21422,11.0
21424,31.5
21426,25.6
21427,16.6
21428,31.3
21430,22.8
21431,6.6
21434,26.1
21437,34.5
21438,33.3
21440,10.8
21443,30.4
21444,31.4
21446,19.8
21447,11.1
21449,33.9
21450,7.3
21452,-4.7
21453,13.2
21454,13.1
21455,8.9
21456,26.0
21460,34.3
21462,19.5
21463,24.5
21465,49.3
21467,24.5
21469,17.8
21471,32.9
21473,16.2
21474,14.8
21475,18.0
21477,28.8
21478,23.8
21479,8.9
21480,7.2
21481,35.7
21484,22.0
21485,32.2
21488,5.7
21489,13.3
21493,11.6
21494,7.5
21495,27.5
21496,17.3
21497,13.9
21498,19.9
21500,7.0
21501,24.5
21502,57.1
21503,35.2
21504,11.9
21505,5.9
21506,10.9
21507,13.1
21509,8.6
21510,24.5
21512,23.8
21514,18.1
21515,33.9
21516,10.9
21517,33.3
21522,23.9
21524,7.0
21526,31.3
21527,31.3
21531,18.5
21534,5.5
21539,13.3
21545,12.6
21546,12.0
21549,22.9
21550,7.1
21552,-7.2
21553,22.7
21557,12.1
21558,10.6
21560,15.6
21561,29.4
21562,21.5
21563,32.5
21565,46.8
21567,24.7
21568,17.5
21572,19.1
21574,8.2
21577,26.2
21578,16.8
21579,23.7
21582,19.3
21585,13.1
21586,31.2
21590,10.8
21591,22.6
21593,31.2
21594,10.1
21597,10.8
21598,10.7
21601,24.1
21602,57.1
21605,28.6
21607,13.0
21612,26.2
21614,33.9
21615,13.6
21619,34.8
21620,29.8
21622,28.2
21623,18.3
21625,26.8
21627,26.2
21628,21.8
21630,20.7
21631,32.0
21632,32.4
21634,7.3
21637,29.3
21639,11.9
21640,23.6
21642,6.4
21643,13.0
21644,23.8
21645,21.1
21646,14.9
21647,20.5
21651,7.6
21652,-9.8
21660,15.4
21662,26.8
21663,23.4
21664,44.2
21669,25.5
21670,26.5
21673,28.9
21674,33.2
21675,26.7
21677,23.6
21678,10.2
21680,19.9
21681,19.8
21682,23.9
21683,10.3
21685,16.0
21688,8.0
21689,9.7
21690,8.2
21691,27.1
21692,13.3
21698,17.1
21699,12.3
21701,54.5
21703,10.2
21708,17.8
21709,32.5
21711,35.0
21712,17.3
21713,28.8
21714,5.7
21719,9.5
21720,15.0
21721,14.2
21724,21.6
21726,33.9
21727,5.2
21730,24.3
21732,15.7
21735,24.2
21738,13.3
21739,22.6
21741,20.2
21742,28.9
21746,27.4
21747,35.1
21750,-2.1
21751,29.7
21755,11.1
21757,30.7
21759,35.3
21760,31.4
21762,14.8
21763,15.7
21764,49.3
21766,22.5
21767,24.9
21769,9.5
21770,27.3
21771,13.4
21772,7.6
21774,7.0
21775,25.9
21776,31.3
21782,35.6
21786,34.9
21788,13.3
21790,19.1
21792,11.8
21794,21.4
21800,54.5
21805,9.6
21806,16.0
21809,34.7
21810,19.4
21811,18.4
21812,8.2
21813,31.3
21814,16.3
21815,22.2
21816,27.6
21817,10.0
21819,11.4
21820,29.7
21822,21.8
21824,16.2
21825,34.6
21826,31.3
21828,6.0
21831,34.4
21832,26.7
21833,22.9
21836,10.1
21837,12.8
21838,10.8
21843,24.8
21846,9.3
21848,19.5
21849,34.8
21850,31.0
21851,-7.2
21856,10.3
21860,8.4
21863,49.3
21865,32.5
21870,26.2
21871,21.2
21873,11.3
21875,26.2
21877,10.3
21878,18.7
21879,27.2
21884,35.4
21885,28.6
21888,10.8
21890,14.0
21891,15.8
21894,10.7
21896,19.6
21897,5.2
21898,24.1
21899,31.2
21901,57.1
21902,22.1
21908,9.3
21911,19.6
21913,33.9
21914,30.7
21917,7.1
21923,26.1
21925,28.8
21926,10.0
21928,24.0
21929,18.3
21933,32.5
21937,24.5
21938,15.9
21941,15.1
21943,9.9
21944,27.7
21948,15.1
21950,-7.2
21953,15.3
21954,26.2
21955,5.6
21956,34.7
21959,32.4
21963,46.8
21966,6.0
21967,8.6
21969,14.4
21972,21.7
21974,12.9
21975,9.0
21976,26.2
21978,18.3
21982,10.4
21983,26.4
21986,5.4
21988,8.2
21989,18.0
21991,35.9
21994,9.2
21999,51.9
22004,12.5
22007,6.2
22008,28.1
22010,21.4
22011,26.2
22016,5.1
22017,33.0
22018,25.8
22020,26.2
22021,32.2
22023,24.8
22025,33.9
22028,11.1
22029,19.2
22032,30.0
22035,22.8
22037,15.9
22038,35.4
22042,28.8
22049,-2.1
22050,9.4
22052,34.7
22053,5.9
22054,23.8
22056,32.0
22057,27.0
22058,11.9
22060,18.1
22061,32.9
22062,49.3
22064,18.2
22068,17.0
22070,22.3
22071,27.5
22072,14.5
22073,12.7
22074,28.8
22075,31.6
22077,12.9
22079,13.6
22081,12.8
22085,34.2
22086,15.9
22087,17.1
22088,18.5
22089,13.2
22090,19.4
22094,5.9
22096,21.9
22099,54.5
22100,14.0
22108,27.8
22111,22.1
22112,31.3
22113,8.1
22115,27.6
22118,7.9
22120,17.6
22121,9.4
22122,34.3
22124,31.3
22127,30.7
22131,10.3
22134,5.1
22136,13.3
22142,9.0
22143,8.0
22144,16.1
22145,14.9
22146,5.6
22148,23.9
22149,-4.7
22156,30.0
22157,24.1
22158,35.3
22159,17.9
22161,27.7
22162,49.3
22164,29.0
22165,8.8
22169,30.9
22172,27.0
22173,16.5
22174,28.8
22176,26.6
22177,26.6
22180,9.1
22181,29.6
22186,22.1
22187,13.3
22188,6.5
22192,20.6
22197,22.0
22199,54.5
22200,35.5
22201,25.1
22203,24.7
22205,12.3
22206,33.6
22209,27.9
22210,34.6
22211,31.3
22214,31.4
22216,14.5
22218,35.8
22219,10.4
22221,15.5
22222,32.0
22223,11.2
22224,28.8
22229,16.3
22231,28.9
22232,7.7
22236,33.4
22237,8.2
22238,29.1
22243,30.3
22246,14.9
22247,26.3
22248,3.0
22251,30.9
22252,19.4
22255,26.8
22257,22.1
22259,57.1
22262,10.5
22264,6.3
22267,7.6
22268,18.8
22271,21.5
22272,36.5
22274,5.6
22276,12.4
22277,12.9
22279,34.9
22280,29.9
22281,21.5
22284,28.8
22292,29.7
22293,5.2
22295,28.5
22297,28.8
22298,19.6
22299,30.9
22300,18.4
22306,29.8
22307,31.3
22308,14.6
22309,-4.7
22310,32.9
22311,10.5
22313,35.7
22316,11.8
22318,34.7
22319,15.2
22322,44.2
22323,26.5
22324,14.1
22325,27.7
22329,23.5
22333,10.6
22334,23.6
22337,15.1
22341,29.6
22343,22.5
22344,18.7
22346,5.6
22347,18.8
22350,23.6
22353,35.5
22354,7.7
22355,26.1
22359,54.5
22362,29.3
22364,35.7
22365,29.7
22368,11.9
22369,27.0
22370,28.5
22371,31.3
22372,19.5
22374,35.1
22375,18.7
22376,12.8
22378,28.8
22381,26.2
22383,31.3
22384,7.7
22387,17.1
22388,22.0
22389,35.3
22395,10.8
22397,31.3
22401,35.0
22402,22.7
22403,33.3
22408,-4.7
22409,6.2
22412,28.5
22413,32.2
22415,25.4
22418,34.9
22420,49.3
22421,10.6
22422,29.1
22423,11.2
22426,27.0
22427,23.4
22428,16.7
22429,5.2
22432,20.9
22433,28.8
22434,13.4
22435,18.4
22437,28.2
22438,9.0
22440,20.7
22441,22.9
22442,21.0
22446,13.3
22448,24.1
22450,12.0
22451,26.3
22454,33.5
22456,13.7
22457,33.0
22458,54.5
22459,28.0
22460,28.2
22461,27.6
22462,22.7
22463,28.4
22468,19.9
22469,32.4
22470,31.3
22473,31.2
22475,8.9
22476,8.3
22479,33.1
22481,15.2
22482,31.3
22486,17.2
22487,6.5
22488,29.3
22491,31.3
22492,11.5
22493,26.0
22494,28.2
22495,32.3
22496,13.3
22499,26.0
22500,32.4
22504,9.5
22505,16.3
22506,24.9
22508,-9.8
22511,34.2
22512,31.7
22513,20.9
22514,20.9
22515,8.3
22516,29.0
22518,13.0
22520,46.8
22521,12.3
22525,22.8
22527,17.3
22532,12.5
22533,26.2
22535,27.1
22537,32.8
22540,5.3
22543,5.1
22545,10.8
22549,12.4
22551,23.2
22553,24.1
22555,35.4
22558,57.1
22559,31.3
22560,34.2
22561,25.3
22562,14.2
22563,13.6
22566,19.3
22569,32.9
22571,33.9
22574,25.4
22575,32.0
22580,14.6
22582,8.4
22583,28.8
22585,34.9
22586,19.0
22589,23.0
22590,30.7
22592,28.1
22595,23.6
22597,9.2
22598,24.8
22599,33.7
22602,13.8
22607,-7.2
22611,12.2
22614,28.8
22615,30.7
22616,35.8
22620,44.2
22622,8.4
22626,17.1
22631,34.0
22633,23.6
22634,27.7
22637,12.7
22639,23.0
22645,10.8
22646,33.5
22647,11.5
22648,23.9
22649,15.2
22650,24.4
22651,27.0
22653,22.6
22655,6.7
22656,30.2
22658,54.5
22659,26.8
22660,22.7
22664,18.3
22666,20.7
22668,14.7
22669,20.7
22670,33.9
22673,11.9
22674,25.8
22682,26.2
22684,15.2
22685,25.6
22688,29.7
22689,7.2
22691,19.8
22694,14.6
22695,31.3
22696,30.5
22698,35.7
22705,26.0
22706,20.2
22708,-4.7
22713,34.6
22714,11.5
22715,35.9
22716,25.2
22719,8.0
22720,44.2
22726,26.3
22728,19.4
22730,34.7
22731,7.9
22732,21.0
22733,33.6
22736,24.7
22737,11.0
22742,25.4
22743,24.9
22745,5.6
22747,5.1
22748,20.7
22749,11.8
22754,23.1
22755,9.6
22757,54.5
22759,11.1
22761,27.1
22762,15.0
22764,5.4
22766,33.0
22768,17.7
22769,28.8
22773,23.2
22775,15.5
22777,34.6
22779,15.3
22781,28.8
22783,28.7
22786,27.6
22788,12.0
22789,28.7
22792,34.8
22794,10.8
22796,33.8
22798,26.2
22799,17.2
22802,11.1
22804,19.2
22805,14.7
22806,-7.2
22807,25.8
22808,15.3
22811,8.7
22813,24.3
22814,9.8
22815,23.4
22816,6.7
22817,9.3
22818,46.8
22825,9.0
22826,13.3
22828,20.1
22829,14.1
22830,29.6
22832,28.8
22833,15.2
22837,6.0
22840,12.5
22843,16.1
22844,10.8
22846,16.4
22850,26.5
22856,57.1
22858,35.6
22859,6.3
22864,35.4
22866,6.1
22868,31.3
22869,17.7
22872,19.6
22873,7.3
22877,18.0
22880,14.6
22881,28.8
22882,34.0
22884,29.6
22886,22.5
22888,29.8
22889,29.8
22894,18.5
22896,8.4
22900,10.0
22902,22.1
22903,12.7
22904,25.5
22906,-7.2
22908,7.9
22909,24.7
22910,19.8
22915,27.7
22916,29.4
22917,31.1
22919,46.8
22920,15.1
22921,18.6
22922,17.6
22923,33.1
22925,10.2
22928,9.6
22929,35.3
22931,26.2
22934,25.1
22936,25.3
22937,24.6
22938,16.3
22939,14.2
22941,18.0
22942,26.5
22943,8.2
22946,12.7
22952,5.1
22954,13.0
22956,51.9
22957,16.5
22958,30.1
22959,15.5
22967,15.3
22968,26.2
22969,8.9
22970,17.6
22973,26.9
22977,18.3
22980,33.9
22982,20.5
22983,20.1
22985,21.7
22988,29.9
22989,14.7
22990,29.6
22991,12.2
22992,13.3
22993,9.2
22994,17.7
22997,35.6
23005,-2.1
23006,22.9
23007,23.6
23010,13.1
23014,30.5
23015,6.1
23017,51.9
23018,21.1
23019,26.5
23020,30.6
23021,17.4
23022,16.7
23023,25.5
23024,30.4
23025,9.4
23030,31.3
23034,34.8
23035,32.6
23037,22.4
23038,10.7
23040,26.3
23042,9.6
23043,15.9
23044,22.5
23046,16.6
23051,15.5
23053,5.7
23054,8.2
23055,54.5
23056,29.0
23057,6.2
23062,24.9
23064,33.4
23066,5.7
23067,28.8
23071,27.4
23072,34.6
23075,26.0
23076,10.4
23078,6.7
23079,33.9
23080,23.1
23081,11.5
23084,14.6
23085,6.0
23087,18.5
23091,19.7
23092,10.1
23093,10.8
23094,8.5
23096,10.7
23098,7.3
23101,25.1
23103,26.3
23105,-4.7
23107,28.4
23108,30.4
23110,23.2
23111,24.7
23112,31.0
23116,28.0
23117,49.3
23120,9.9
23121,33.5
23122,29.3
23124,23.9
23125,8.5
23130,28.8
23132,31.4
23133,12.0
23134,19.9
23135,9.9
23138,33.5
23139,6.3
23140,6.7
23142,13.3
23143,22.3
23145,32.4
23147,20.8
23149,25.2
23150,18.8
23152,13.7
