0,75.1
1,114.4
2,67.4
4,99.8
5,54.5
6,83.7
7,49.3
9,156.2
10,59.6
11,72.2
12,72.5
15,59.6
17,59.6
19,96.8
20,117.5
21,146.5
24,111.2
25,57.1
26,129.0
27,169.7
31,76.3
32,113.8
34,57.1
36,131.9
37,118.4
40,126.2
41,125.3
42,129.5
44,57.1
46,100.7
48,138.0
50,95.5
53,64.8
54,105.2
56,131.8
58,127.1
59,110.6
61,77.5
63,59.6
68,120.9
69,150.3
72,69.9
76,150.2
78,154.7
79,81.3
81,69.9
82,116.2
84,98.9
86,115.8
90,164.4
91,72.5
94,104.3
95,109.9
97,128.2
99,150.8
100,77.6
106,80.7
108,108.1
110,64.8
112,147.6
113,123.4
120,67.4
121,96.5
122,101.6
123,149.2
129,86.7
130,134.0
132,69.9
133,150.6
137,157.6
142,64.8
147,102.7
148,87.1
149,153.6
152,69.9
156,168.7
158,86.4
160,84.0
162,64.8
163,115.9
164,109.7
165,99.0
166,130.2
169,76.1
170,154.0
173,67.4
183,59.6
185,87.9
187,123.5
193,95.3
194,64.8
201,122.0
202,147.0
204,64.8
206,70.1
210,157.7
211,127.3
212,89.0
213,136.6
214,74.1
215,62.2
217,118.2
224,136.7
225,64.8
226,124.1
227,93.7
229,129.5
230,117.4
231,153.3
232,144.4
234,80.6
235,64.8
236,104.8
237,168.4
239,93.7
241,84.9
242,166.0
244,148.8
245,57.1
247,161.5
249,74.7
251,91.3
255,138.0
256,67.4
257,142.0
259,146.0
261,110.3
263,129.2
264,156.9
267,51.9
268,129.6
272,134.5
273,71.7
275,166.8
276,105.7
277,75.1
284,99.3
285,125.8
287,51.9
294,146.7
295,89.2
296,113.8
297,77.6
298,124.1
299,154.5
300,169.1
305,113.2
306,126.9
308,57.1
309,120.3
310,118.0
313,142.1
314,72.0
316,81.8
317,117.2
318,75.1
319,111.4
321,134.3
322,73.5
329,62.2
330,81.3
334,145.0
338,112.8
339,72.5
341,158.9
344,82.3
345,93.1
348,161.9
350,72.5
351,100.3
357,166.9
360,72.5
363,83.2
365,129.5
366,74.3
367,118.4
368,136.5
370,75.1
371,165.5
372,125.9
374,162.9
375,151.9
376,107.4
377,100.1
380,64.8
381,73.9
382,84.2
383,147.8
384,81.7
385,161.0
387,131.1
388,113.6
390,117.8
392,64.8
393,101.5
395,112.5
396,87.8
402,62.2
404,163.9
408,88.1
409,130.9
411,103.2
412,67.4
414,91.5
416,133.5
418,136.0
420,114.0
422,62.2
424,72.9
428,119.9
431,118.0
432,108.9
433,62.2
435,124.1
439,138.5
443,62.2
446,102.6
450,129.7
451,130.1
453,57.1
460,102.6
461,79.6
464,51.9
465,152.4
468,93.2
469,92.5
470,70.6
472,153.0
474,166.9
475,57.1
478,98.7
479,142.9
480,91.8
483,86.6
484,152.9
485,54.5
486,159.9
487,75.6
488,144.1
490,109.4
494,135.8
495,67.4
498,164.7
499,163.1
502,76.8
505,51.9
507,141.7
508,117.2
511,162.3
512,134.0
513,133.3
514,116.3
516,72.5
520,85.7
521,147.2
523,123.6
524,124.6
525,94.6
527,46.8
529,104.7
531,102.1
533,137.5
535,125.4
537,72.5
539,87.1
540,128.4
545,100.5
546,138.1
547,51.9
548,104.6
556,141.3
558,72.5
559,101.3
560,110.6
564,167.7
567,102.8
568,67.4
572,106.8
574,78.4
577,76.7
578,77.6
579,103.6
580,75.2
583,155.2
585,74.7
588,72.5
590,100.9
592,79.3
593,114.8
594,100.7
595,117.2
596,146.5
599,133.9
600,67.4
601,105.7
602,84.1
610,67.4
611,113.8
612,122.9
615,144.3
617,143.2
618,81.2
619,148.9
620,64.8
621,116.1
622,105.6
623,100.0
626,150.6
627,127.1
629,89.9
630,75.1
636,98.9
640,160.1
641,69.9
642,90.3
643,103.3
645,118.8
649,123.4
650,92.2
651,72.5
653,82.5
655,91.8
662,67.4
663,78.3
666,148.8
668,138.8
669,94.0
670,134.4
671,161.8
672,67.4
674,168.0
676,112.7
678,73.7
679,117.4
680,123.5
681,87.5
682,161.4
683,62.2
686,76.8
688,149.4
692,118.0
693,57.1
696,117.5
697,71.0
701,152.7
702,113.5
703,57.1
704,101.6
706,76.3
707,88.2
708,114.5
709,100.6
712,102.7
713,62.2
714,136.1
719,162.7
721,142.9
722,118.3
724,51.9
725,150.6
727,121.2
728,80.2
729,126.5
735,67.4
736,80.7
742,112.5
743,117.8
745,51.9
749,99.3
751,156.9
752,119.7
753,143.5
755,75.1
756,114.3
761,107.9
762,86.3
763,150.9
764,128.9
765,51.9
767,76.5
772,101.0
773,91.0
774,109.6
775,128.8
776,77.6
777,127.6
779,158.9
781,132.9
782,113.0
783,167.2
785,104.1
786,62.2
788,131.0
789,127.5
795,149.0
797,80.2
798,138.9
799,81.2
803,123.2
806,125.4
807,72.5
808,118.0
809,127.7
810,123.1
815,93.4
818,75.1
819,163.1
820,140.9
826,86.4
828,69.9
830,140.4
833,124.0
836,111.0
837,122.2
838,69.9
840,160.5
843,87.0
844,99.5
847,97.7
848,77.6
849,163.8
850,147.6
852,99.8
855,145.1
856,160.1
859,137.0
860,72.5
862,142.4
864,128.3
866,113.8
867,126.1
869,157.7
870,75.1
874,152.4
876,159.0
877,102.9
880,69.9
882,141.0
885,104.9
889,122.0
890,69.9
891,164.5
892,144.2
893,154.3
894,75.1
896,84.3
898,114.1
901,59.6
902,128.4
904,143.1
907,130.9
908,159.7
911,59.6
912,154.6
918,153.9
919,152.0
921,59.6
922,99.9
925,124.0
926,133.9
930,160.7
931,115.2
932,59.6
933,78.2
934,71.4
938,102.8
942,128.1
943,54.5
945,99.9
947,166.5
949,162.5
952,151.1
953,59.6
954,149.0
956,149.5
958,90.6
959,119.6
963,54.5
965,157.4
967,122.3
969,109.1
971,122.3
973,69.9
978,78.3
979,142.6
982,133.8
984,54.5
986,91.0
988,120.3
990,145.2
994,154.9
995,80.2
996,81.4
997,78.2
998,94.6
999,168.6
1000,119.2
1003,123.9
1004,97.5
1005,62.2
1006,161.6
1007,127.6
1013,158.8
1014,72.3
1016,82.8
1017,149.5
1019,135.7
1021,156.6
1022,154.4
1023,127.3
1027,154.6
1028,72.5
1029,153.3
1031,114.5
1033,127.7
1034,107.0
1035,84.8
1036,156.1
1037,162.5
1038,128.5
1039,59.6
1045,92.1
1047,148.9
1048,78.9
1050,54.5
1058,152.9
1059,101.3
1062,57.1
1063,120.5
1064,145.1
1069,145.5
1071,116.5
1072,144.9
1074,82.8
1075,146.9
1076,136.9
1077,89.5
1082,137.3
1083,72.0
1085,62.2
1087,144.4
1089,82.2
1090,94.1
1093,128.4
1094,71.0
1096,77.6
1097,165.9
1099,123.3
1107,72.5
1108,155.3
1112,168.5
1117,100.7
1118,134.6
1119,59.6
1121,101.5
1124,82.1
1125,142.4
1127,74.2
1130,75.9
1131,57.1
1132,123.1
1135,152.6
1136,149.8
1139,155.6
1140,141.7
1141,74.3
1142,57.1
1145,102.8
1146,157.9
1149,99.9
1150,141.5
1154,80.2
1155,90.7
1157,77.0
1158,104.3
1160,139.7
1162,148.7
1163,119.6
1165,64.8
1169,107.9
1170,110.2
1174,161.5
1176,75.1
1177,77.9
1178,139.0
1180,121.0
1181,130.0
1183,126.8
1185,90.9
1186,94.2
1187,69.9
1188,131.9
1190,140.4
1191,132.7
1193,124.5
1194,167.5
1195,167.7
1196,154.2
1197,113.0
1200,62.2
1203,106.7
1206,165.6
1208,115.0
1210,94.6
1211,59.6
1212,135.1
1214,156.1
1215,152.0
1217,93.9
1218,118.7
1219,88.6
1222,59.6
1225,104.7
1226,157.7
1227,80.1
1229,99.0
1230,109.3
1233,82.8
1235,137.9
1237,74.3
1243,83.4
1245,67.4
1246,120.8
1247,94.0
1248,118.6
1249,115.7
1251,155.5
1253,124.5
1255,112.2
1256,146.6
1257,67.4
1262,107.8
1264,70.5
1265,161.4
1268,64.8
1269,99.5
1271,122.1
1273,107.8
1275,95.5
1276,76.9
1280,64.8
1284,140.5
1285,111.2
1286,73.5
1288,80.5
1291,62.2
1293,169.9
1297,116.2
1302,57.1
1304,164.9
1307,133.5
1311,90.5
1313,82.8
1314,123.5
1315,151.8
1316,161.9
1319,111.0
1321,96.6
1322,167.5
1325,166.3
1326,69.9
1336,73.7
1337,67.4
1338,136.9
1348,67.4
1353,124.7
1354,83.5
1355,168.0
1357,70.8
1359,59.6
1361,84.3
1363,112.0
1364,112.2
1365,163.4
1367,120.9
1368,80.2
1370,133.4
1371,62.2
1372,137.6
1377,115.3
1379,122.9
1381,127.9
1382,54.5
1383,129.2
1386,149.4
1387,162.7
1388,127.5
1390,127.5
1394,80.2
1397,74.5
1399,119.5
1402,96.0
1405,75.1
1409,145.6
1410,161.7
1414,156.0
1415,132.7
1417,67.4
1419,139.2
1420,70.4
1421,87.4
1422,120.6
1426,146.4
1427,97.8
1428,62.2
1432,131.4
1434,115.4
1435,97.0
1437,102.0
1438,166.1
1439,57.1
1440,81.2
1441,140.7
1443,153.1
1446,146.7
1447,123.8
1448,159.3
1449,83.6
1451,62.2
1455,119.1
1457,115.4
1458,158.8
1460,72.1
1463,51.9
1464,166.8
1469,150.6
1473,166.0
1474,77.6
1475,168.5
1477,148.9
1480,145.8
1481,153.9
1482,152.1
1484,147.6
1485,75.1
1489,146.6
1490,73.5
1491,100.5
1497,64.8
1502,90.8
1504,120.4
1505,122.3
1506,76.5
1508,59.6
1509,119.3
1511,124.8
1512,114.3
1514,144.7
1519,51.9
1521,166.2
1524,92.2
1526,93.4
1527,110.5
1528,146.1
1530,115.0
1531,67.4
1533,152.9
1536,79.4
1539,141.7
1540,130.5
1542,132.3
1543,54.5
1544,81.3
1545,165.2
1546,89.3
1550,152.6
1551,157.3
1554,80.2
1557,166.9
1558,88.6
1559,82.8
1560,83.3
1565,80.2
1566,96.5
1572,86.7
1573,74.0
1575,96.2
1576,69.9
1577,135.5
1579,87.0
1580,157.0
1582,159.4
1583,131.1
1586,142.4
1587,105.6
1588,59.6
1591,116.2
1592,70.7
1593,145.8
1599,76.6
1600,57.1
1601,75.7
1605,139.0
1606,138.9
1611,75.1
1613,153.9
1614,97.2
1616,126.5
1623,72.5
1624,86.0
1625,107.1
1626,148.1
1629,154.0
1631,134.3
1632,75.9
1633,118.3
1634,90.5
1636,131.6
1637,79.9
1639,133.4
1645,85.4
1647,84.4
1648,145.1
1649,124.4
1650,116.6
1652,128.7
1655,143.5
1656,117.5
1657,72.5
1662,144.4
1664,168.3
1665,156.6
1666,127.4
1668,90.5
1669,64.8
1671,87.7
1675,77.8
1677,119.6
1678,99.9
1680,59.6
1681,84.4
1683,99.0
1684,96.5
1686,159.0
1687,134.6
1691,80.2
1692,91.4
1693,111.9
1695,80.8
1698,152.8
1699,75.2
1700,89.2
1701,108.3
1702,72.5
1705,113.2
1706,138.8
1707,91.5
1709,117.5
1714,82.8
1716,84.9
1717,109.9
1718,139.4
1719,87.0
1720,163.4
1722,85.1
1725,73.5
1726,77.6
1727,129.5
1728,147.9
1729,93.6
1731,159.3
1733,111.4
1735,83.6
1737,64.8
1739,127.1
1740,89.7
1742,165.8
1744,128.3
1748,62.2
1749,71.0
1751,116.5
1755,130.5
1756,73.0
1757,79.6
1759,94.3
1760,57.1
1762,103.4
1769,149.8
1770,166.6
1771,87.9
1775,72.6
1780,116.1
1782,80.2
1787,131.5
1789,78.9
1790,145.3
1791,73.5
1793,115.1
1795,82.8
1796,86.0
1797,80.9
1798,124.1
1804,108.1
1805,74.1
1806,77.6
1807,120.9
1808,158.5
1810,135.5
1812,119.6
1813,88.6
1814,72.5
1816,152.4
1817,64.8
1824,101.6
1828,64.8
1832,162.2
1833,147.3
1834,144.3
1837,149.2
1838,169.9
1840,64.8
1841,81.1
1842,86.7
1843,150.8
1845,166.4
1847,117.4
1850,70.6
1851,98.2
1857,95.7
1858,94.5
1859,75.4
1860,167.8
1861,152.5
1863,85.4
1865,146.0
1868,99.3
1871,148.7
1872,160.2
1874,82.8
1875,88.4
1878,84.4
1880,134.8
1881,71.5
1882,104.2
1883,91.5
1886,77.6
1888,128.8
1889,145.5
1890,84.2
1894,143.3
1897,69.9
1898,163.7
1900,143.0
1902,128.3
1903,100.5
1904,152.3
1906,149.8
1908,72.5
1909,117.4
1910,88.0
1911,131.7
1914,90.8
1920,67.4
1923,88.3
1925,134.2
1930,105.3
1931,79.4
1932,95.6
1935,162.3
1938,117.0
1942,77.9
1943,85.4
1944,116.6
1948,151.8
1949,142.0
1953,72.4
1954,82.8
1955,167.1
1959,83.4
1963,164.8
1966,80.2
1968,152.7
1975,105.9
1976,124.0
1977,75.1
1978,81.2
1979,73.7
1981,80.6
1986,127.5
1987,81.0
1989,80.2
1995,165.5
1997,123.7
1998,162.2
2000,69.9
2003,79.1
2004,150.5
2006,124.0
2007,110.5
2009,145.7
2012,98.2
2015,98.6
2018,130.7
2019,123.6
2021,111.4
2022,117.9
2023,85.4
2024,112.8
2025,157.9
2026,168.1
2028,137.4
2029,82.7
2031,116.4
2033,169.9
2034,77.6
2038,160.8
2041,120.0
2042,96.9
2044,115.6
2045,69.9
2046,72.4
2051,144.9
2054,113.8
2058,72.5
2060,135.7
2062,167.6
2063,167.7
2064,81.0
2067,73.3
2068,99.2
2069,90.5
2070,154.6
2075,83.1
2077,113.7
2079,74.4
2080,75.1
2082,110.4
2083,143.7
2085,146.4
2086,163.3
2087,146.9
2089,164.2
2090,90.2
2091,130.8
2092,100.8
2093,143.0
2096,82.8
2097,89.7
2099,102.6
2101,93.0
2102,124.0
2103,121.0
2104,90.5
2108,97.0
2109,164.5
2110,73.9
2112,85.8
2113,92.4
2115,75.1
2116,166.5
2117,111.0
2118,97.4
2119,88.7
2120,141.4
2121,71.0
2124,76.6
2127,72.5
2128,86.6
2132,144.3
2133,119.2
2134,163.9
2135,84.8
2136,71.5
2138,160.3
2139,69.9
2140,70.1
2141,90.8
2144,91.8
2147,76.1
2148,71.8
2150,98.2
2151,121.9
2154,94.9
2156,99.2
2157,141.4
2158,110.3
2161,82.8
2164,93.9
2167,81.1
2168,70.5
2169,121.6
2172,85.4
2173,127.2
2177,147.8
2178,169.9
2184,80.2
2185,82.1
2187,81.9
2190,149.8
2191,72.3
2195,165.5
2196,67.4
2198,155.0
2202,108.4
2205,145.3
2207,75.1
2209,132.8
2210,152.0
2211,83.9
2212,119.4
2214,163.4
2216,144.2
2218,128.2
2219,69.9
2222,123.2
2229,147.3
2230,100.8
2233,142.7
2235,144.0
2236,131.8
2239,108.8
2240,124.2
2242,93.1
2243,143.3
2245,100.0
2246,168.9
2248,165.1
2250,164.3
2252,156.7
2253,80.2
2254,124.8
2255,118.0
2256,95.8
2257,94.5
2259,75.1
2262,162.1
2264,151.6
2265,167.2
2266,75.1
2270,121.5
2272,138.4
2273,94.9
2274,81.9
2275,79.7
2277,80.2
2278,153.5
2280,165.3
2283,78.2
2284,79.6
2285,158.2
2286,101.8
2287,136.2
2288,95.6
2290,125.5
2292,106.9
2295,95.9
2296,120.1
2298,145.9
2299,82.8
2300,166.3
2302,100.9
2308,167.3
2311,103.4
2313,88.9
2314,96.0
2317,154.8
2318,71.2
2319,106.3
2320,102.4
2321,93.9
2322,111.3
2324,90.5
2325,73.0
2329,102.2
2330,164.3
2331,130.7
2333,95.0
2334,128.2
2335,77.6
2337,140.4
2338,156.3
2341,113.2
2342,84.8
2345,75.4
2347,77.6
2349,75.9
2355,83.8
2357,158.1
2358,72.5
2360,142.1
2361,151.0
2363,140.6
2364,123.9
2365,79.2
2366,120.7
2369,105.9
2372,162.1
2374,135.3
2375,121.3
2376,129.6
2379,146.7
2381,93.1
2387,166.8
2391,84.9
2392,159.1
2393,84.1
2394,85.4
2400,123.1
2403,120.1
2404,77.0
2405,77.6
2410,96.2
2411,102.5
2412,83.6
2415,92.7
2416,75.1
2418,161.3
2419,133.7
2423,89.3
2424,101.2
2427,95.6
2428,165.1
2430,92.2
2431,169.6
2433,71.7
2439,82.8
2441,99.5
2442,85.9
2443,79.5
2445,147.2
2446,165.0
2447,125.2
2448,103.2
2449,124.9
2450,100.8
2452,138.7
2457,163.8
2459,132.8
2460,148.6
2461,167.5
2463,90.5
2464,104.6
2466,71.8
2473,136.6
2475,75.1
2482,159.2
2485,81.4
2486,77.6
2490,73.2
2494,116.5
2496,87.3
2497,75.1
2503,75.5
2504,112.6
2505,72.4
2507,78.5
2508,108.5
2510,126.2
2512,122.2
2515,115.8
2516,73.0
2517,142.3
2519,144.6
2520,87.6
2522,95.6
2529,168.4
2530,82.7
2533,85.4
2539,143.5
2540,162.5
2543,112.7
2544,80.2
2551,105.1
2552,82.5
2553,135.5
2555,75.1
2556,96.4
2560,123.2
2566,107.4
2567,95.6
2570,119.8
2573,112.9
2574,145.1
2575,92.4
2577,151.5
2578,82.8
2579,159.1
2580,161.3
2583,145.4
2584,101.2
2587,142.5
2589,167.1
2590,103.4
2592,100.5
2594,87.8
2600,84.4
2601,114.0
2603,93.1
2604,168.8
2606,155.2
2607,100.0
2612,152.5
2614,80.2
2618,72.5
2622,132.2
2625,80.2
2626,103.3
2627,70.7
2629,119.9
2631,144.4
2632,132.6
2633,90.5
2635,143.2
2636,77.6
2637,119.2
2638,84.9
2641,93.5
2644,125.8
2645,112.2
2647,119.1
2648,111.1
2649,111.0
2651,86.9
2653,164.0
2654,145.7
2656,144.9
2658,82.6
2661,100.8
2664,115.9
2670,165.3
2671,109.4
2673,85.4
2674,168.7
2675,120.9
2676,154.7
2679,140.4
2680,108.7
2684,77.6
2685,105.1
2687,139.9
2688,110.0
2692,85.3
2694,83.0
2696,75.1
2698,168.4
2699,165.6
2700,132.1
2701,114.2
2702,169.8
2703,155.2
2706,114.2
2707,108.5
2711,155.6
2712,97.0
2716,132.4
2717,117.3
2719,108.5
2720,153.0
2723,136.2
2725,127.8
2726,133.9
2727,106.2
2728,73.6
2729,167.5
2732,80.9
2733,95.6
2735,121.0
2736,120.1
2737,118.3
2738,100.1
2741,84.6
2744,82.8
2745,93.5
2747,156.4
2754,151.2
2755,77.6
2756,100.8
2758,100.7
2759,111.9
2763,143.9
2764,107.8
2765,85.2
2766,103.4
2767,81.0
2768,78.7
2770,149.1
2771,113.3
2775,95.3
2776,143.8
2779,98.2
2781,105.6
2788,105.7
2791,98.2
2793,127.5
2795,87.2
2796,167.0
2797,136.0
2798,97.6
2800,98.3
2802,98.2
2803,151.8
2804,146.6
2807,80.1
2810,141.0
2811,119.3
2812,89.6
2813,82.8
2816,125.0
2819,123.1
2820,116.4
2822,70.3
2824,136.9
2825,90.5
2827,93.4
2829,92.5
2830,137.7
2831,148.9
2834,120.0
2836,80.2
2840,156.4
2841,150.6
2843,142.4
2845,122.8
2846,97.7
2847,111.1
2848,150.1
2849,123.7
2851,169.3
2853,110.5
2855,156.6
2858,71.8
2859,154.7
2861,108.5
2866,151.7
2869,169.3
2870,88.2
2873,90.5
2875,86.1
2876,157.8
2877,101.1
2878,135.7
2879,97.9
2880,150.2
2881,88.6
2883,156.3
2884,87.9
2885,81.8
2889,110.1
2892,101.1
2893,144.4
2895,75.1
2897,122.8
2902,70.4
2904,164.6
2906,119.7
2907,105.9
2908,80.0
2912,143.0
2915,157.2
2917,108.5
2918,168.7
2919,98.2
2920,90.3
2921,76.2
2925,139.9
2927,80.5
2928,114.7
2929,152.8
2931,95.6
2932,132.3
2934,161.2
2935,74.9
2938,78.9
2940,97.6
2942,95.6
2944,163.8
2945,91.0
2950,161.9
2951,117.5
2954,85.4
2956,81.7
2958,80.7
2961,139.0
2962,144.8
2963,129.0
2964,116.7
2965,103.4
2966,135.2
2967,111.5
2969,148.1
2970,80.5
2972,133.0
2973,108.8
2977,95.6
2990,103.4
3001,162.7
3002,95.6
3003,146.1
3005,164.0
3006,138.4
3007,131.7
3010,145.1
3012,75.1
3013,87.9
3015,120.7
3016,79.9
3017,134.8
3019,154.5
3020,133.6
3021,152.1
3022,102.9
3023,106.5
3024,98.2
3025,70.9
3027,82.0
3028,90.6
3029,113.8
3030,92.3
3031,123.0
3033,140.6
3035,72.3
3036,85.4
3039,162.3
3042,125.8
3044,137.6
3045,153.7
3047,113.7
3048,122.3
3050,70.3
3051,83.8
3052,116.8
3053,146.0
3054,141.5
3056,116.8
3059,164.5
3060,105.9
3061,80.6
3064,72.7
3067,139.0
3068,81.1
3070,131.6
3073,95.6
3076,167.6
3079,85.5
3081,159.4
3084,100.8
3086,137.7
3089,157.9
3092,128.8
3093,168.8
3096,93.1
3097,95.1
3101,119.0
3103,82.1
3107,113.7
3109,89.8
3111,103.9
3112,92.7
3113,114.7
3119,111.9
3121,100.8
3123,156.3
3125,160.0
3127,70.7
3128,149.8
3132,124.7
3133,85.4
3134,137.4
3135,141.6
3136,106.6
3137,105.2
3141,156.7
3142,120.1
3144,98.2
3147,71.5
3149,135.1
3150,136.9
3152,99.3
3154,149.8
3155,90.5
3156,83.5
3157,157.6
3158,166.4
3159,86.2
3160,152.4
3161,109.1
3162,73.8
3163,169.3
3164,130.2
3165,146.3
3167,116.2
3168,125.1
3169,154.7
3170,96.0
3175,136.6
3176,72.0
3177,150.1
3179,103.4
3180,138.2
3181,105.7
3183,113.7
3185,139.0
3186,94.6
3188,155.0
3190,161.4
3191,106.5
3192,87.9
3196,144.9
3198,157.7
3201,84.2
3203,102.2
3204,95.6
3208,143.6
3209,153.9
3210,159.5
3211,152.3
3212,108.8
3215,85.4
3218,70.4
3219,162.8
3220,91.8
3223,106.4
3225,167.9
3226,116.2
3227,165.5
3229,134.9
3230,146.7
3233,159.3
3234,85.7
3236,154.9
3237,140.3
3238,103.4
3239,139.5
3241,132.0
3245,156.6
3247,127.8
3251,87.9
3253,98.9
3254,155.5
3258,120.3
3260,92.0
3262,71.0
3263,93.1
3264,161.3
3265,143.9
3267,130.1
3268,150.9
3270,151.4
3272,101.6
3274,85.4
3275,92.9
3276,84.7
3277,106.8
3278,77.1
3279,117.6
3280,106.5
3281,150.8
3282,125.0
3286,118.8
3288,108.8
3289,99.1
3290,141.3
3291,94.5
3293,136.8
3294,163.6
3296,156.3
3297,93.3
3298,113.7
3299,125.0
3300,79.3
3302,102.6
3303,152.0
3304,158.0
3305,97.6
3306,119.9
3309,96.0
3310,95.6
3312,169.4
3313,119.1
3315,152.0
3316,128.5
3317,112.4
3322,90.5
3323,165.9
3326,102.0
3327,94.7
3329,103.7
3331,144.4
3332,161.4
3334,82.8
3343,81.1
3345,116.2
3349,124.6
3353,77.6
3357,100.8
3358,114.9
3365,119.3
3369,87.9
3373,150.7
3374,83.4
3376,129.2
3380,146.5
3381,77.6
3386,119.8
3387,79.8
3388,106.2
3392,85.5
3393,77.6
3394,155.4
3396,133.9
3397,146.2
3399,151.2
3402,116.2
3403,92.7
3404,105.9
3406,108.3
3410,85.4
3412,148.7
3415,113.5
3417,103.4
3420,143.8
3424,169.1
3427,147.2
3428,112.3
3429,95.6
3434,116.3
3438,84.1
3439,105.8
3440,85.4
3441,114.2
3442,72.7
3443,90.4
3444,152.7
3445,116.4
3446,106.2
3448,150.6
3451,77.6
3455,145.5
3457,118.1
3458,169.5
3459,145.3
3460,118.1
3461,142.3
3462,91.7
3463,118.7
3464,100.8
3467,100.7
3471,92.8
3473,71.6
3476,103.4
3478,88.6
3480,114.2
3481,152.1
3484,154.1
3485,120.3
3488,100.8
3490,102.4
3491,115.9
3497,88.1
3499,75.0
3501,90.5
3502,126.3
3503,103.2
3507,147.1
3508,109.4
3509,122.8
3511,168.1
3512,82.8
3520,159.4
3521,88.6
3524,105.9
3526,121.6
3527,100.0
3529,74.6
3532,111.7
3534,95.1
3535,71.0
3536,103.4
3538,135.3
3540,107.7
3542,90.7
3543,117.8
3545,76.8
3547,153.5
3549,95.6
3553,90.7
3554,103.8
3556,142.7
3558,166.7
3560,90.5
3567,110.1
3569,111.8
3571,82.8
3573,83.8
3574,130.4
3577,91.8
3578,122.9
3579,142.2
3582,103.4
3587,153.6
3588,130.7
3593,110.6
3594,137.2
3595,73.0
3596,98.2
3597,96.3
3601,161.9
3603,122.3
3605,109.3
3607,98.2
3609,137.9
3610,87.6
3612,139.4
3614,148.0
3618,98.2
3620,147.7
3624,96.0
3625,104.7
3628,72.5
3630,90.5
3634,122.5
3636,153.4
3640,147.2
3641,90.5
3643,117.4
3644,127.8
3645,144.2
3646,165.7
3647,102.7
3649,155.4
3653,77.6
3655,112.9
3656,95.7
3658,70.9
3659,89.2
3660,135.6
3661,102.2
3664,108.5
3665,115.0
3667,143.7
3669,120.0
3670,158.2
3672,120.0
3674,103.9
3676,95.5
3677,100.8
3681,113.6
3686,77.7
3689,87.9
3690,140.4
3696,72.8
3697,153.1
3700,90.5
3701,122.7
3703,84.7
3706,88.1
3707,91.0
3709,110.2
3712,77.6
3713,153.7
3714,115.5
3716,90.6
3717,76.0
3719,87.6
3722,164.4
3724,111.1
3729,84.7
3731,80.3
3733,146.2
3736,103.4
3737,153.6
3738,153.0
3746,135.1
3747,119.0
3748,87.9
3750,130.7
3751,166.9
3753,80.7
3754,86.4
3755,147.9
3756,85.8
3757,158.3
3759,107.2
3760,85.4
3761,98.9
3762,153.7
3765,110.4
3766,125.3
3771,80.2
3773,73.2
3774,87.6
3776,80.4
3777,112.5
3778,127.9
3779,90.7
3780,155.6
3781,87.9
3782,108.5
3783,73.0
3785,88.0
3787,111.3
3790,166.1
3794,126.9
3795,100.8
3801,125.0
3802,79.6
3806,167.9
3807,96.6
3808,87.9
3809,137.9
3810,96.9
3811,152.9
3814,76.1
3816,124.6
3819,85.4
3820,156.8
3821,115.1
3823,158.4
3824,145.9
3825,162.2
3827,150.6
3828,78.0
3829,162.4
3830,85.4
3833,114.6
3834,147.9
3836,158.8
3837,138.5
3841,164.1
3842,108.5
3843,99.1
3847,89.8
3852,88.5
3853,153.5
3854,88.4
3855,100.8
3857,161.7
3858,107.7
3862,92.4
3866,81.3
3867,90.5
3869,150.8
3872,86.0
3875,97.9
3876,114.4
3877,167.9
3878,87.9
3882,161.6
3883,70.5
3888,92.2
3889,126.3
3890,80.2
3892,144.1
3895,145.6
3896,102.5
3899,76.1
3900,158.1
3901,100.8
3903,131.6
3904,131.3
3905,168.7
3909,102.5
3910,139.9
3913,95.6
3914,91.9
3915,130.5
3917,82.7
3918,140.1
3921,169.1
3923,119.3
3925,124.1
3926,100.8
3927,78.7
3928,159.5
3929,81.8
3931,108.8
3933,104.8
3935,74.8
3937,167.5
3938,87.9
3939,126.3
3940,112.9
3945,82.5
3946,113.0
3948,112.0
3949,77.6
3951,109.5
3952,103.1
3955,87.2
3956,156.3
3958,125.3
3960,90.5
3964,100.4
3966,167.7
3970,128.8
3972,82.8
3973,96.5
3976,144.9
3983,111.1
3984,128.6
3985,72.3
3986,142.3
3987,120.6
3989,124.6
3991,100.1
3993,70.3
3996,98.2
4000,144.8
4007,85.4
4008,169.4
4009,145.4
4014,154.6
4018,72.2
4019,85.4
4020,74.5
4023,71.0
4024,141.5
4026,80.3
4027,166.0
4028,154.4
4030,82.8
4031,129.5
4032,86.6
4033,147.2
4035,160.4
4036,147.7
4037,164.4
4041,111.1
4042,158.2
4045,93.8
4046,73.3
4048,95.9
4049,127.2
4055,105.9
4057,73.5
4061,92.5
4063,159.9
4064,104.8
4065,89.2
4067,93.1
4069,90.6
4070,70.7
4076,86.8
4078,85.4
4080,105.8
4083,74.1
4084,151.0
4088,160.6
4089,77.6
4094,150.5
4096,104.4
4097,167.3
4098,81.4
4101,100.8
4107,158.5
4109,92.6
4113,95.6
4114,103.8
4117,102.9
4121,141.8
4122,159.7
4123,92.6
4124,110.5
4125,93.1
4128,120.4
4131,125.4
4133,126.0
4134,139.5
4136,87.9
4138,90.8
4141,89.4
4142,147.6
4144,89.3
4146,86.2
4148,75.1
4150,155.0
4151,109.4
4155,86.3
4157,112.7
4159,82.8
4163,70.7
4169,123.7
4170,77.6
4172,104.7
4173,144.7
4177,123.8
4182,111.1
4189,134.5
4190,82.2
4195,100.8
4198,153.2
4200,148.9
4203,145.3
4204,79.0
4206,158.0
4207,80.2
4211,75.8
4212,148.0
4213,145.1
4218,80.2
4219,109.3
4221,160.8
4222,131.2
4223,131.5
4229,165.1
4230,72.5
4231,81.8
4233,94.3
4235,119.6
4239,89.8
4241,105.9
4242,118.1
4243,100.9
4244,107.2
4247,86.0
4248,160.6
4250,108.4
4254,103.4
4259,129.5
4260,156.7
4264,134.1
4266,126.6
4267,85.4
4268,160.2
4269,104.2
4271,168.6
4272,79.8
4274,83.2
4275,109.6
4276,77.6
4278,80.2
4285,92.9
4288,118.2
4289,72.5
4290,93.2
4291,110.1
4292,164.4
4294,155.5
4295,97.4
4296,101.9
4299,136.8
4300,100.8
4303,120.9
4304,161.8
4305,95.2
4311,80.3
4312,160.6
4313,98.2
4314,140.1
4315,159.0
4316,112.6
4317,114.9
4318,146.6
4319,72.6
4320,127.1
4322,85.8
4323,144.2
4324,123.3
4325,93.1
4328,96.9
4329,157.5
4330,97.0
4332,89.1
4336,90.5
4337,140.5
4338,76.3
4339,139.1
4340,156.0
4342,105.5
4347,80.2
4349,101.8
4352,97.1
4353,142.0
4354,84.0
4355,128.2
4357,80.5
4359,93.1
4360,93.8
4361,154.1
4364,121.7
4365,114.2
4367,161.7
4369,116.1
4370,75.1
4371,84.0
4376,116.6
4377,167.4
4378,107.4
4379,144.1
4381,103.4
4382,156.0
4383,85.3
4385,79.3
4386,124.5
4388,140.8
4390,95.4
4391,149.8
4392,102.1
4395,103.4
4396,163.2
4398,149.1
4399,129.1
4404,143.6
4407,82.8
4411,166.9
4416,100.3
4418,85.4
4421,124.3
4422,119.3
4425,113.1
4426,133.4
4428,153.0
4429,72.5
4430,89.8
4436,90.9
4437,93.4
4439,87.0
4441,105.9
4443,129.0
4446,125.8
4453,105.4
4454,105.9
4455,105.8
4458,131.8
4463,75.7
4465,104.0
4466,90.5
4472,141.6
4474,136.6
4476,166.0
4477,87.9
4481,97.5
4482,158.3
4483,103.4
4486,120.3
4487,148.4
4489,77.6
4491,143.5
4492,123.0
4493,153.0
4500,105.9
4504,124.1
4506,167.3
4510,102.1
4512,98.2
4518,113.7
4519,149.4
4520,83.5
4521,148.9
4522,71.8
4523,120.8
4524,109.8
4525,90.5
4529,82.5
4530,128.5
4531,86.8
4532,100.5
4534,91.7
4535,148.0
4536,82.8
4537,157.5
4538,143.7
4542,78.0
4543,128.6
4547,77.6
4548,86.9
4550,85.9
4551,88.4
4552,105.0
4554,145.5
4555,123.3
4557,105.3
4558,93.1
4559,149.6
4560,163.4
4561,110.6
4564,145.7
4566,168.9
4568,114.7
4569,125.2
4570,75.1
4571,88.9
4572,146.0
4573,158.1
4575,134.6
4576,79.1
4577,164.6
4579,149.3
4581,98.2
4582,94.6
4583,97.4
4586,98.7
4587,127.3
4589,129.4
4590,148.8
4591,130.5
4593,90.5
4595,135.5
4597,109.4
4598,153.1
4600,114.3
4601,83.4
4603,109.9
4604,80.2
4605,96.2
4608,153.1
4609,104.3
4610,153.9
4612,166.3
4616,75.1
4618,106.1
4619,89.4
4623,76.7
4625,153.6
4627,77.6
4633,134.7
4636,71.9
4637,93.2
4638,95.6
4641,77.5
4644,143.7
4645,78.4
4649,77.6
4650,92.0
4651,107.1
4653,90.1
4654,131.9
4655,83.4
4656,99.8
4657,116.4
4659,78.7
4660,129.2
4661,108.2
4662,93.1
4665,70.6
4667,74.7
4669,166.5
4670,163.2
4672,84.4
4673,87.9
4674,118.6
4675,73.7
4676,110.0
4678,110.0
4679,162.3
4680,144.8
4682,153.1
4684,87.9
4687,75.5
4688,167.6
4690,157.0
4691,109.1
4696,80.2
4699,91.8
4700,122.6
4701,163.9
4702,71.0
4703,127.2
4704,92.8
4705,87.3
4707,72.5
4708,97.1
4711,79.0
4712,152.6
4714,135.9
4715,155.7
4716,137.3
4718,90.6
4719,95.6
4722,156.7
4723,89.8
4727,111.0
4730,85.4
4732,71.2
4733,163.7
4734,131.7
4735,98.3
4738,79.3
4739,113.5
4741,83.7
4742,93.1
4744,90.0
4745,79.9
4747,104.9
4749,160.0
4751,98.8
4752,161.5
4753,93.1
4755,89.7
4757,87.9
4758,117.0
4760,159.5
4763,122.3
4764,82.8
4765,117.7
4766,112.0
4767,161.9
4768,73.2
4773,155.9
4774,90.8
4775,72.5
4777,95.1
4780,99.2
4786,132.4
4788,67.4
4790,74.5
4793,97.7
4798,112.9
4799,95.6
4802,76.9
4803,102.8
4804,104.0
4805,121.2
4806,114.1
4807,169.8
4808,153.6
4809,119.4
4810,87.9
4815,131.5
4816,88.9
4817,100.0
4819,88.3
4821,158.2
4822,90.5
4823,98.7
4824,91.9
4826,100.8
4827,147.1
4830,77.8
4831,119.6
4832,91.9
4833,87.9
4834,104.5
4835,148.1
4836,149.6
4838,120.1
4839,108.9
4841,95.6
4842,127.0
4844,80.2
4845,169.7
4846,86.6
4847,157.4
4848,147.3
4849,107.0
4851,92.5
4856,77.6
4859,154.2
4860,83.7
4861,125.9
4862,74.1
4863,138.8
4867,87.3
4868,67.4
4870,121.6
4871,143.4
4873,96.6
4876,135.3
4878,167.9
4879,95.6
4881,70.3
4882,103.9
4884,120.1
4886,103.7
4889,158.6
4890,87.9
4891,118.2
4892,164.4
4894,87.4
4897,109.1
4901,87.9
4905,97.9
4906,102.1
4907,129.0
4909,71.6
4910,149.8
4913,90.5
4915,128.2
4918,92.0
4919,123.4
4922,96.2
4923,112.7
4924,100.5
4925,77.6
4927,154.6
4931,133.5
4933,143.7
4936,80.2
4937,99.4
4938,115.6
4940,165.6
4942,122.3
4945,97.6
4947,69.9
4948,115.7
4949,109.6
4951,107.5
4954,124.2
4956,115.1
4957,135.2
4959,100.8
4961,155.6
4963,157.8
4967,95.6
4969,111.4
4971,95.6
4973,116.7
4975,137.9
4977,108.8
4978,93.4
4980,125.3
4982,80.2
4983,150.9
4984,166.5
4985,76.7
4993,135.9
4994,158.2
4995,69.9
4996,78.7
4998,107.3
5001,121.8
5005,130.9
5006,72.5
5007,73.4
5008,76.0
5009,115.3
5017,98.2
5023,162.5
5024,86.7
5026,154.3
5028,87.9
5029,71.1
5033,121.7
5035,103.5
5036,139.8
5040,98.2
5045,135.0
5047,153.8
5052,90.5
5057,108.5
5063,80.2
5064,99.0
5065,93.6
5066,111.2
5067,158.2
5068,73.3
5069,159.9
5070,92.8
5074,69.9
5075,94.8
5076,96.7
5078,112.5
5081,120.9
5084,91.1
5086,64.8
5088,109.6
5089,134.5
5090,136.6
5092,72.2
5096,110.5
5097,93.1
5099,140.1
5100,158.8
5101,82.0
5103,163.3
5104,88.3
5108,80.2
5109,88.3
5110,111.0
5112,155.8
5113,161.1
5118,134.2
5121,87.9
5122,147.6
5125,131.4
5126,147.1
5130,115.2
5132,95.6
5134,134.7
5137,113.1
5138,91.8
5140,146.0
5143,80.2
5154,77.6
5156,137.6
5157,150.8
5158,74.7
5162,117.1
5166,72.5
5169,90.5
5176,111.5
5177,105.9
5179,100.5
5182,151.3
5183,139.6
5184,139.4
5186,156.8
5189,120.4
5190,95.6
5193,118.2
5195,110.0
5196,144.2
5201,77.6
5207,101.5
5208,169.4
5210,102.3
5213,75.1
5216,72.2
5219,137.1
5220,100.3
5222,83.8
5223,152.8
5224,69.9
5225,139.4
5227,75.9
5228,134.8
5230,126.1
5234,146.5
5235,87.9
5237,146.5
5239,124.5
5240,110.1
5241,142.3
5243,73.0
5244,109.1
5246,75.1
5247,88.7
5250,76.1
5251,77.0
5252,146.3
5254,127.8
5255,166.2
5256,159.6
5258,71.5
5259,95.6
5263,89.2
5264,151.0
5266,128.1
5268,146.7
5270,85.4
5271,120.9
5272,131.6
5281,72.5
5283,137.3
5284,126.7
5285,123.7
5288,86.0
5289,82.0
5290,85.4
5293,67.4
5294,140.2
5302,166.6
5303,146.9
5304,69.9
5305,147.3
5306,93.3
5307,79.0
5308,143.8
5310,162.2
5312,123.4
5314,152.2
5315,87.9
5317,100.8
5319,96.2
5322,110.5
5323,99.2
5324,73.0
5327,69.9
5329,141.8
5330,129.1
5331,138.7
5336,136.5
5337,167.2
5338,78.7
5339,80.2
5342,147.1
5348,165.8
5349,100.2
5350,75.1
5351,169.0
5353,130.2
5354,71.9
5355,98.2
5356,147.5
5357,131.0
5358,111.9
5361,67.4
5362,72.7
5363,108.0
5369,88.0
5370,131.7
5372,62.2
5374,152.0
5377,113.9
5380,70.2
5383,95.8
5384,130.7
5385,64.8
5387,86.2
5388,169.9
5392,93.2
5395,161.2
5396,90.5
5397,144.2
5399,97.8
5400,148.6
5401,151.2
5404,139.7
5405,148.3
5406,139.4
5407,72.5
5409,152.2
5414,77.5
5417,142.5
5419,80.2
5420,81.2
5421,117.1
5422,156.0
5424,70.6
5425,133.4
5426,165.4
5428,97.1
5430,77.6
5434,92.2
5436,81.4
5441,75.1
5443,158.3
5448,122.8
5449,156.4
5452,145.9
5453,69.9
5455,162.1
5460,80.3
5462,135.0
5463,95.3
5465,64.8
5468,147.2
5469,162.1
5470,135.8
5475,160.1
5476,93.1
5478,135.4
5481,79.3
5484,70.1
5486,163.9
5487,75.1
5488,147.5
5489,81.4
5491,75.4
5494,129.9
5495,85.6
5496,133.1
5498,77.6
5500,74.3
5502,158.0
5503,90.4
5504,121.3
5505,123.9
5506,121.8
5510,80.2
5512,159.8
5515,166.1
5516,76.6
5518,85.9
5519,85.0
5520,86.6
5521,164.6
5522,72.5
5526,125.0
5527,135.1
5528,147.0
5530,153.3
5531,154.2
5533,69.9
5535,102.6
5536,164.7
5538,136.1
5539,71.9
5542,84.7
5543,120.8
5544,59.6
5545,127.9
5546,103.9
5547,126.5
5550,134.2
5552,116.7
5554,97.6
5556,85.4
5559,77.5
5561,124.0
5562,112.3
5565,129.2
5567,85.4
5568,81.2
5572,130.0
5574,159.4
5576,155.9
5577,87.1
5578,82.8
5579,117.2
5582,109.2
5588,71.6
5591,80.2
5593,73.3
5594,83.3
5596,71.7
5598,132.5
5600,115.6
5601,133.6
5602,72.5
5604,150.4
5607,169.4
5610,112.1
5611,137.3
5612,158.2
5613,75.1
5617,98.1
5618,91.8
5619,150.3
5620,108.1
5622,135.1
5623,134.2
5624,62.2
5626,103.4
5627,122.2
5628,152.1
5629,118.5
5636,90.5
5638,70.6
5641,87.9
5642,143.6
5643,99.5
5644,136.2
5646,135.8
5647,82.8
5649,99.8
5651,135.8
5654,107.4
5655,110.8
5658,71.9
5659,85.4
5660,79.0
5663,162.6
5666,165.7
5667,115.9
5668,94.9
5669,88.3
5670,77.6
5672,160.9
5673,127.0
5674,110.5
5678,151.6
5679,140.4
5680,95.0
5681,107.7
5682,67.4
5683,146.1
5685,70.1
5686,161.8
5688,99.4
5691,107.5
5693,72.5
5694,83.3
5695,146.5
5697,139.0
5698,74.2
5699,105.5
5700,139.8
5702,112.5
5703,120.1
5704,59.6
5711,77.9
5712,123.3
5713,114.0
5715,106.7
5716,85.4
5717,164.2
5718,138.0
5723,167.1
5724,157.4
5727,152.7
5728,82.8
5731,97.2
5732,157.7
5733,121.0
5734,84.7
5736,105.2
5738,141.7
5739,75.1
5741,115.2
5742,119.8
5750,67.4
5752,121.8
5753,97.6
5754,141.2
5756,111.1
5758,169.9
5759,166.1
5760,93.1
5762,59.6
5763,73.8
5764,110.3
5767,116.4
5768,147.5
5771,167.0
5772,110.8
5773,77.6
5774,128.5
5778,82.9
5780,128.1
5782,126.7
5785,64.8
5787,118.5
5788,161.1
5792,158.7
5794,160.5
5796,87.9
5797,83.5
5798,75.0
5800,95.7
5802,130.5
5805,108.7
5806,86.6
5807,111.1
5808,85.4
5810,132.0
5812,71.1
5814,111.7
5817,77.3
5819,77.6
5822,115.4
5824,163.1
5826,128.3
5830,69.9
5831,87.7
5832,159.3
5835,107.7
5836,168.5
5838,160.9
5840,164.8
5841,62.2
5843,135.7
5844,85.4
5846,161.5
5847,130.3
5849,165.1
5853,124.8
5854,80.2
5857,91.5
5858,145.1
5863,143.5
5864,156.5
5865,69.9
5867,110.0
5868,121.5
5869,141.0
5871,115.1
5876,85.4
5877,88.7
5878,161.6
5881,113.4
5882,100.1
5883,94.7
5884,122.5
5885,74.9
5888,85.4
5890,164.8
5892,150.7
5894,159.5
5895,151.3
5897,79.6
5898,90.0
5899,69.9
5900,122.8
5902,89.0
5906,146.4
5910,59.6
5911,78.5
5913,169.1
5914,110.2
5916,72.9
5917,159.7
5921,99.0
5922,59.6
5924,75.0
5927,167.9
5929,139.8
5933,163.0
5934,82.8
5936,84.7
5938,131.7
5943,144.7
5944,76.7
5945,72.5
5946,149.2
5947,144.1
5948,136.1
5949,155.3
5956,82.8
5957,157.1
5958,143.1
5962,126.4
5967,77.6
5969,91.8
5970,81.8
5976,90.4
5977,151.2
5978,119.6
5979,64.8
5982,85.2
5987,133.6
5988,124.4
5989,83.2
5990,129.1
5991,62.2
5992,124.0
5993,134.4
5995,153.3
5998,108.4
6002,62.2
6003,86.0
6006,148.6
6007,164.0
6008,83.5
6011,160.9
6013,87.9
6014,103.0
6015,167.0
6017,134.9
6020,75.6
6023,88.3
6024,103.7
6025,77.6
6028,93.2
6030,127.0
6033,118.4
6034,112.7
6036,82.8
6037,130.9
6038,150.0
6039,132.2
6040,96.1
6041,160.6
6043,110.1
6044,161.5
6045,126.8
6046,167.7
6047,75.1
6048,147.7
6052,162.1
6060,67.4
6061,167.9
6063,73.4
6065,168.8
6066,107.0
6068,123.4
6071,62.2
6072,157.9
6074,78.5
6075,135.9
6076,94.6
6078,163.5
6082,57.1
6085,114.9
6086,110.8
6087,80.1
6089,122.6
6090,127.2
6092,167.8
6093,87.9
6095,85.3
6096,146.4
6097,161.5
6099,134.2
6100,147.1
6102,155.0
6103,70.7
6104,94.8
6105,80.2
6108,163.9
6109,119.1
6110,82.1
6111,86.3
6112,92.6
6113,77.3
6114,89.4
6115,136.0
6117,80.2
6118,101.6
6120,110.5
6123,71.3
6125,119.6
6127,119.6
6128,72.5
6131,134.2
6132,77.3
6136,169.1
6137,105.0
6139,57.1
6141,92.6
6142,78.6
6144,127.6
6147,136.3
6150,166.6
6151,62.2
6153,84.7
6157,103.4
6158,132.2
6161,153.6
6162,57.1
6163,129.8
6165,77.1
6167,89.8
6168,118.4
6172,91.0
6173,90.5
6174,74.0
6176,99.8
6177,88.4
6185,77.6
6187,99.4
6188,169.6
6192,97.5
6193,114.9
6194,125.0
6197,69.9
6199,70.0
6200,97.1
6202,113.1
6208,69.9
6210,114.4
6213,165.9
6214,111.6
6216,82.9
6218,92.5
6219,67.4
6221,168.6
6223,162.3
6224,158.5
6225,139.2
6230,117.0
6231,72.5
6234,102.1
6236,147.7
6239,130.8
6242,62.2
6243,148.6
6244,133.0
6246,167.7
6247,138.8
6248,155.3
6253,167.5
6254,85.4
6257,79.0
6260,139.5
6263,166.1
6264,86.6
6265,77.6
6268,123.8
6269,104.7
6270,96.8
6274,108.4
6275,167.2
6276,73.7
6277,69.9
6280,151.4
6285,125.8
6288,67.4
6295,105.4
6299,59.6
6301,70.1
6303,104.6
6304,144.2
6306,142.9
6307,150.8
6308,102.1
6309,153.5
6310,72.5
6311,96.1
6312,141.8
6315,131.9
6317,136.9
6323,57.1
6330,94.9
6331,136.6
6332,162.2
6334,77.6
6335,74.7
6336,119.2
6337,117.3
6338,75.1
6339,71.1
6340,94.6
6341,152.9
6344,71.3
6345,72.5
6347,101.1
6356,62.2
6358,159.3
6360,81.7
6361,97.6
6362,71.8
6367,146.1
6368,62.2
6369,130.4
6371,148.8
6377,124.6
6379,59.6
6380,87.8
6381,150.4
6382,72.4
6388,90.9
6389,108.3
6391,77.6
6393,146.9
6399,146.7
6400,143.8
6401,74.0
6403,59.6
6404,121.4
6406,161.5
6408,124.4
6409,109.9
6411,164.9
6414,77.6
6415,132.8
6416,139.3
6418,72.1
6419,114.5
6421,124.0
6422,85.2
6423,102.2
6424,130.8
6425,82.8
6426,103.8
6429,167.1
6433,108.2
6434,139.2
6435,140.9
6436,69.9
6437,90.7
6439,90.4
6441,93.7
6442,142.1
6444,83.2
6445,75.5
6446,89.0
6447,168.5
6448,100.0
6449,62.2
6453,155.0
6454,120.3
6460,57.1
6463,120.7
6469,75.3
6471,77.6
6472,146.9
6477,113.2
6478,74.3
6479,142.0
6480,130.5
6482,64.8
6483,118.3
6484,166.9
6486,129.7
6487,74.1
6488,137.9
6489,81.7
6490,139.9
6491,79.3
6492,153.9
6494,77.6
6495,152.2
6496,132.9
6501,167.9
6502,156.6
6503,77.9
6504,90.0
6505,77.6
6506,155.6
6507,84.5
6512,109.0
6513,80.0
6514,103.5
6515,97.6
6517,62.2
6521,103.9
6526,74.7
6527,86.3
6529,57.1
6530,109.9
6531,88.6
6533,81.9
6534,129.4
6535,110.3
6537,99.5
6538,115.5
6540,49.3
6541,138.4
6542,168.8
6543,84.7
6544,101.4
6547,130.1
6551,72.5
6552,117.0
6553,70.7
6555,117.7
6558,97.3
6559,141.1
6560,99.6
6561,142.6
6562,67.4
6563,165.9
6569,75.7
6571,123.2
6573,159.2
6574,72.5
6575,147.3
6576,161.9
6577,159.5
6579,78.0
6581,145.1
6582,98.9
6585,144.6
6586,69.9
6588,152.3
6593,127.2
6595,142.9
6596,127.7
6597,62.2
6600,112.1
6602,149.3
6603,150.4
6604,169.8
6607,83.2
6608,57.1
6609,110.7
6610,94.8
6611,140.3
6613,127.6
6614,162.3
6615,106.3
6616,167.6
6619,83.8
6620,54.5
6621,108.4
6622,144.0
6626,100.1
6627,83.0
6631,80.2
6634,118.6
6635,125.6
6636,114.8
6637,91.6
6638,108.8
6639,110.1
6642,69.9
6645,103.1
6647,151.3
6648,109.3
6649,74.2
6650,109.6
6651,113.4
6652,70.8
6654,77.6
6657,74.4
6660,143.1
6666,75.1
6667,158.7
6671,78.8
6673,133.3
6676,96.6
6677,62.2
6679,70.8
6683,124.5
6684,82.1
6685,156.0
6686,128.7
6688,64.8
6690,129.2
6691,168.8
6692,75.9
6693,144.1
6694,133.9
6696,84.3
6698,83.5
6699,130.8
6700,57.1
6703,103.9
6704,138.9
6705,146.7
6706,116.0
6707,107.1
6708,116.7
6709,129.7
6711,87.9
6713,93.1
6714,81.2
6715,134.9
6717,88.7
6719,109.2
6721,75.0
6723,77.6
6724,141.7
6725,113.0
6726,83.3
6728,166.7
6730,104.9
6734,72.5
6735,151.5
6739,119.3
6740,99.5
6745,102.2
6746,64.8
6748,151.1
6750,168.1
6754,129.1
6757,57.1
6758,83.7
6761,101.9
6763,144.7
6768,64.8
6769,166.3
6772,98.2
6774,98.5
6778,102.9
6779,59.6
6781,121.4
6782,82.4
6783,71.6
6784,126.1
6789,141.8
6792,85.4
6796,129.5
6797,104.8
6798,105.0
6800,91.1
6801,158.6
6802,154.5
6803,77.6
6812,146.2
6813,109.8
6814,67.4
6815,110.6
6818,156.7
6821,129.7
6824,138.6
6825,62.2
6827,84.9
6828,119.3
6829,119.5
6832,101.5
6836,110.7
6837,57.1
6839,71.2
6841,167.0
6844,110.8
6845,151.1
6848,154.0
6849,69.9
6850,101.0
6851,112.3
6853,114.8
6855,99.6
6858,156.4
6860,57.1
6861,85.4
6868,112.2
6870,162.2
6871,71.6
6872,80.2
6873,89.7
6874,150.0
6875,76.3
6880,120.4
6881,72.7
6883,85.4
6891,107.4
6892,89.9
6894,72.5
6895,70.4
6897,114.1
6898,137.9
6901,133.5
6902,79.0
6903,119.7
6905,67.4
6908,79.4
6911,112.3
6912,104.7
6913,114.0
6917,76.2
6918,62.2
6919,82.9
6923,95.6
6926,77.5
6927,94.5
6928,102.6
6929,82.8
6930,114.2
6933,96.5
6940,67.4
6941,141.0
6943,166.9
6945,143.2
6946,106.5
6947,79.7
6949,151.2
6951,85.4
6952,139.4
6954,168.8
6955,116.8
6956,75.4
6957,142.3
6962,82.3
6963,77.6
6965,163.4
6966,78.0
6967,134.3
6968,122.5
6969,127.6
6970,109.8
6971,166.4
6973,163.7
6974,67.4
6975,154.8
6976,110.5
6981,91.5
6984,103.0
6985,158.5
6986,64.8
6987,125.4
6988,89.5
6989,102.2
6990,130.7
6993,96.4
6995,137.1
6997,116.0
6998,64.8
6999,124.7
7001,70.7
7002,138.7
7003,74.9
7005,88.6
7007,94.3
7008,144.6
7009,85.4
7011,117.8
7012,117.4
7013,143.1
7019,124.2
7020,67.4
7021,94.4
7023,70.6
7024,134.2
7025,126.4
7026,86.4
7027,130.3
7028,113.2
7030,94.2
7031,77.6
7035,89.0
7041,151.7
7043,72.5
7045,139.0
7047,130.4
7048,117.9
7052,148.6
7055,62.2
7058,83.3
7060,126.6
7062,156.1
7063,98.9
7066,62.2
7067,74.0
7068,156.9
7071,162.2
7073,102.2
7077,54.5
7078,146.3
7080,151.5
7085,163.5
7087,159.6
7089,82.8
7090,116.0
7091,131.7
7092,129.4
7094,88.7
7095,86.5
7097,117.3
7100,72.5
7102,93.7
7104,163.3
7106,85.9
7108,142.1
7111,77.6
7118,156.7
7120,135.2
7121,74.7
7123,77.6
7124,93.8
7125,88.2
7126,127.5
7127,95.1
7132,169.2
7135,67.4
7136,76.5
7137,131.7
7141,92.8
7143,149.8
7145,121.6
7146,64.8
7151,99.3
7153,91.2
7154,99.7
7157,59.6
7161,136.0
7162,130.5
7163,122.5
7168,158.9
7169,82.8
7171,70.9
7172,137.3
7178,103.1
7181,72.5
7183,102.1
7184,78.4
7185,154.3
7186,139.0
7188,82.7
7189,108.9
7190,161.5
7191,114.3
7192,77.6
7193,113.6
7195,139.0
7196,132.2
7198,90.2
7200,165.9
7201,82.4
7202,70.4
7203,77.6
7204,153.2
7205,148.9
7206,168.5
7207,91.3
7208,85.5
7211,147.3
7215,67.4
7218,113.2
7219,132.5
7220,147.9
7223,161.4
7224,119.3
7225,116.7
7226,67.4
7228,91.8
7229,163.9
7230,111.4
7231,142.6
7232,140.0
7233,73.4
7237,57.1
7239,109.8
7240,162.9
7245,143.0
7246,72.8
7249,82.8
7250,150.3
7256,70.3
7257,125.9
7261,75.1
7262,75.2
7263,107.8
7264,73.5
7266,131.4
7272,75.1
7273,86.9
7274,120.3
7275,100.4
7276,133.0
7277,78.5
7279,152.4
7282,134.0
7283,69.9
7284,149.1
7285,99.8
7286,75.4
7288,159.8
7292,97.0
7294,62.2
7295,137.5
7299,156.9
7300,117.3
7302,145.9
7306,67.4
7308,120.6
7311,112.8
7315,112.0
7316,107.1
7317,162.6
7318,51.9
7322,154.2
7323,113.0
7326,86.0
7328,154.3
7329,80.2
7330,94.5
7332,110.5
7336,150.5
7339,136.2
7340,105.7
7341,75.1
7348,154.7
7350,151.0
7351,110.4
7352,69.9
7354,165.5
7355,96.2
7358,111.2
7359,77.1
7360,127.4
7362,96.7
7363,69.9
7365,129.5
7366,134.6
7369,90.9
7370,122.3
7371,91.8
7372,128.7
7374,59.6
7376,147.0
7378,137.9
7379,144.9
7381,153.9
7383,140.8
7384,154.2
7386,129.8
7387,69.9
7389,77.7
7392,129.9
7393,140.6
7394,112.7
7398,57.1
7400,128.9
7401,132.0
7402,101.5
7403,101.4
7405,156.7
7407,129.7
7409,85.4
7411,150.0
7412,90.8
7414,152.4
7420,85.4
7421,147.5
7422,113.7
7423,91.6
7428,83.2
7432,75.1
7436,92.2
7437,129.0
7443,67.4
7444,159.3
7447,80.1
7448,80.1
7449,141.9
7450,128.6
7452,163.5
7454,123.4
7455,57.1
7456,135.1
7458,136.1
7464,161.0
7465,103.0
7467,72.5
7468,98.8
7470,163.3
7471,92.8
7472,71.6
7473,140.0
7474,88.2
7475,115.0
7476,144.1
7478,62.2
7479,168.8
7483,157.6
7485,83.7
7486,89.3
7489,87.9
7490,129.2
7500,82.8
7502,123.1
7506,161.5
7507,163.9
7509,100.0
7512,67.4
7515,152.7
7517,162.9
7518,86.2
7519,109.8
7521,116.1
7522,120.4
7524,59.6
7526,119.2
7531,154.7
7535,54.5
7537,147.4
7540,122.6
7543,160.9
7544,82.9
7546,75.1
7551,115.0
7554,134.3
7558,64.8
7561,134.9
7563,75.8
7564,135.7
7566,167.3
7567,99.0
7569,82.8
7572,108.8
7573,74.9
7580,139.8
7581,80.2
7582,168.7
7585,90.0
7587,142.3
7589,127.6
7592,69.9
7596,107.0
7597,100.6
7598,144.8
7600,127.5
7601,123.6
7602,157.0
7604,62.2
7606,97.1
7610,72.5
7612,137.9
7614,121.5
7615,57.1
7618,138.7
7619,132.4
7623,126.7
7626,85.4
7628,149.7
7631,89.3
7632,137.8
7635,94.1
7637,70.4
7638,77.6
7639,132.1
7640,161.8
7641,85.4
7642,109.5
7645,81.9
7646,153.9
7647,75.9
7648,158.0
7650,85.4
7652,111.7
7653,108.4
7654,83.2
7656,79.9
7658,102.3
7661,80.2
7662,160.1
7664,143.2
7665,138.4
7666,110.6
7669,97.8
7671,119.9
7672,64.8
7675,162.7
7676,164.7
7678,102.2
7681,145.2
7682,105.8
7684,62.2
7686,119.4
7687,80.0
7691,166.6
7692,95.5
7693,113.1
7694,70.6
7695,59.6
7696,75.2
7697,122.4
7698,103.8
7700,148.7
7703,111.5
7704,123.1
7705,83.3
7706,87.9
7707,138.3
7710,105.7
7712,111.5
7713,105.3
7716,102.5
7717,85.4
7718,77.6
7719,159.2
7722,156.2
7723,96.0
7727,147.0
7729,128.9
7730,77.6
7732,117.2
7733,99.6
7734,84.4
7739,154.8
7741,72.5
7742,90.2
7743,122.9
7744,161.2
7748,169.8
7749,71.7
7750,147.6
7751,153.6
7752,59.6
7753,152.1
7755,156.7
7756,143.0
7757,115.3
7758,165.8
7761,110.8
7763,59.6
7764,74.6
7765,132.2
7767,151.0
7769,96.8
7772,161.6
7773,121.3
7774,111.1
7775,57.1
7779,87.3
7782,149.7
7786,103.3
7787,87.9
7788,74.9
7791,131.1
7792,123.5
7794,73.0
7795,130.9
7797,157.3
7798,82.8
7800,144.7
7801,91.3
7802,136.8
7804,71.2
7807,147.0
7810,75.1
7812,133.8
7813,152.4
7816,117.6
7817,118.5
7819,154.5
7821,69.9
7822,152.1
7824,127.6
7826,118.7
7827,154.1
7830,103.7
7831,85.3
7832,59.6
7835,96.9
7836,91.0
7837,108.9
7841,97.0
7843,67.4
7844,71.3
7846,101.8
7847,74.2
7850,90.5
7851,145.4
7852,107.8
7853,139.1
7854,99.9
7856,67.4
7857,120.9
7858,168.4
7860,127.3
7861,119.8
7862,133.9
7864,92.3
7865,95.1
7866,71.9
7867,95.6
7868,103.7
7872,152.8
7874,146.1
7878,82.8
7882,74.5
7884,135.8
7886,113.2
7888,86.9
7889,75.1
7891,131.7
7897,97.0
7900,135.1
7901,69.9
7903,150.9
7905,74.4
7908,93.3
7909,79.0
7910,161.1
7912,130.0
7913,67.4
7914,146.3
7919,103.2
7921,98.0
7923,154.2
7924,77.6
7925,71.8
7927,89.1
7931,101.2
7932,74.1
7933,79.6
7935,144.4
7936,67.4
7940,136.5
7941,117.1
7943,123.3
7947,93.1
7950,116.0
7955,131.0
7956,165.6
7957,81.4
7958,87.9
7961,100.9
7963,121.3
7965,112.5
7967,96.7
7969,75.1
7970,160.9
7971,122.3
7972,85.9
7973,70.4
7974,122.2
7975,142.4
7976,153.9
7977,102.0
7979,134.1
7981,157.4
7982,67.4
7984,139.6
7987,150.6
7989,97.6
7991,127.1
7992,85.9
7993,67.4
7995,134.7
8000,92.0
8001,167.1
8004,85.4
8006,112.9
8008,143.7
8009,106.1
8010,124.9
8011,141.6
8012,145.7
8015,72.5
8016,86.6
8019,112.0
8020,118.1
8021,162.8
8027,93.1
8030,91.0
8031,154.9
8033,114.3
8036,140.0
8037,108.4
8038,85.4
8044,88.2
8045,129.0
8046,135.7
8047,134.2
8048,138.1
8050,72.5
8051,107.2
8053,168.2
8054,123.0
8055,159.4
8061,69.9
8063,146.4
8068,116.9
8069,120.1
8070,99.5
8072,84.7
8073,72.5
8076,108.1
8077,106.2
8079,104.0
8080,101.2
8082,132.3
8084,95.6
8086,129.4
8089,72.3
8090,112.0
8091,85.3
8095,75.1
8096,83.4
8098,142.5
8100,92.0
8102,117.4
8103,115.0
8104,120.3
8105,127.9
8106,168.1
8107,90.5
8108,158.4
8109,92.8
8111,137.9
8113,127.3
8114,73.6
8117,151.3
8119,85.4
8120,146.3
8121,112.8
8122,152.4
8123,157.3
8125,141.4
8129,132.8
8130,77.6
8137,114.8
8138,137.1
8139,125.2
8140,151.0
8141,72.5
8142,168.4
8148,128.1
8149,140.3
8150,77.1
8151,149.1
8152,112.1
8153,72.5
8154,101.4
8156,90.3
8157,122.5
8158,168.9
8162,157.9
8163,124.5
8164,95.6
8166,132.4
8169,74.0
8172,115.2
8173,91.0
8175,82.8
8176,121.4
8184,105.3
8185,76.5
8187,95.6
8189,119.4
8192,75.8
8193,128.1
8194,107.0
8195,168.8
8197,146.2
8198,132.7
8199,95.6
8203,86.8
8208,152.7
8209,91.0
8210,87.9
8211,96.4
8212,121.2
8214,111.1
8220,122.5
8221,80.2
8225,156.1
8227,165.9
8229,138.5
8230,109.9
8231,85.1
8232,77.6
8233,129.4
8236,138.1
8237,88.0
8241,163.6
8243,148.6
8244,103.4
8246,130.3
8248,133.2
8249,103.4
8252,78.8
8253,157.8
8257,95.6
8259,124.7
8261,85.5
8267,126.7
8268,87.9
8270,148.9
8274,122.3
8275,108.7
8279,135.6
8280,82.8
8281,146.2
8282,121.1
8283,83.4
8286,150.8
8288,134.9
8290,118.8
8291,82.8
8293,161.5
8294,108.8
8298,146.0
8299,166.6
8302,93.1
8303,73.7
8305,81.8
8307,115.5
8309,83.2
8310,118.1
8314,75.1
8315,84.7
8317,125.5
8318,108.8
8320,130.7
8321,93.1
8325,97.5
8326,100.8
8328,140.6
8329,136.3
8330,155.0
8331,136.1
8333,130.7
8335,115.4
8337,74.6
8338,93.1
8340,141.4
8342,74.4
8345,119.1
8347,116.0
8348,131.4
8349,85.4
8350,156.2
8353,148.3
8354,156.5
8357,169.7
8359,89.1
8360,80.2
8362,105.4
8364,114.6
8368,150.0
8369,114.2
8371,144.0
8372,75.1
8374,146.6
8375,154.0
8376,135.8
8377,158.0
8381,80.0
8382,102.9
8384,100.8
8386,133.2
8389,138.1
8393,146.8
8396,103.4
8397,114.0
8401,160.5
8403,105.7
8404,134.4
8406,122.5
8407,131.8
8408,137.6
8409,90.5
8410,143.9
8413,121.7
8420,85.4
8427,141.1
8429,98.0
8431,77.6
8433,74.5
8434,106.8
8435,120.9
8436,90.9
8437,167.2
8439,101.1
8440,100.9
8441,118.3
8442,103.4
8443,75.1
8446,162.0
8448,80.2
8449,85.2
8452,92.7
8453,134.8
8456,93.1
8459,102.3
8460,74.9
8463,110.1
8464,169.0
8465,81.4
8466,132.8
8467,90.5
8468,109.4
8470,163.4
8471,123.4
8472,77.5
8473,73.7
8474,133.9
8475,157.8
8477,115.0
8478,90.5
8479,114.6
8481,75.3
8483,158.2
8487,93.2
8488,167.4
8489,80.2
8490,150.4
8495,132.8
8496,105.7
8497,121.2
8498,96.3
8499,167.6
8500,127.5
8501,87.9
8506,99.3
8507,161.5
8509,169.0
8510,151.9
8511,112.3
8513,72.5
8514,155.6
8516,165.4
8519,151.4
8520,76.6
8521,91.8
8523,83.5
8524,100.8
8526,101.9
8527,91.9
8528,119.9
8529,136.2
8530,156.9
8531,105.5
8534,164.5
8537,93.1
8539,106.6
8540,140.6
8541,86.0
8542,161.0
8548,82.8
8550,136.9
8552,136.3
8555,93.4
8557,120.9
8559,80.2
8562,166.2
8563,147.4
8565,90.8
8567,73.8
8569,126.5
8570,77.6
8572,78.9
8574,125.9
8580,162.2
8581,136.2
8583,100.8
8585,134.3
8586,169.6
8587,92.7
8591,87.5
8595,95.6
8596,79.0
8598,155.5
8601,143.6
8602,76.9
8604,104.7
8605,143.9
8606,93.1
8607,123.8
8610,128.3
8613,149.7
8614,72.4
8617,98.2
8619,116.7
8620,90.7
8621,99.2
8623,108.4
8624,117.1
8625,95.5
8626,87.7
8627,82.2
8629,90.5
8631,144.3
8633,127.2
8636,124.5
8637,135.0
8640,93.1
8641,162.2
8645,118.7
8647,144.1
8650,162.3
8652,80.2
8653,131.0
8654,112.5
8659,114.2
8660,103.7
8662,164.8
8664,105.9
8666,159.8
8670,77.7
8673,136.4
8674,110.4
8676,95.6
8677,125.2
8680,134.6
8681,164.3
8684,159.1
8685,79.9
8687,85.4
8690,148.8
8694,100.0
8696,97.3
8697,118.0
8698,80.2
8700,139.9
8702,75.9
8703,129.1
8704,151.7
8707,90.3
8708,118.7
8710,77.6
8714,115.0
8715,72.6
8716,169.6
8718,129.1
8722,100.8
8725,141.9
8728,82.5
8729,110.5
8730,136.4
8731,169.7
8733,167.1
8734,93.1
8738,147.1
8741,72.9
8745,87.9
8749,85.2
8750,166.2
8755,133.4
8757,82.8
8758,166.9
8760,144.9
8762,127.5
8767,134.6
8768,80.2
8769,108.4
8770,151.9
8772,81.7
8773,159.1
8774,111.6
8777,115.2
8780,82.8
8781,82.3
8782,144.6
8784,169.0
8786,111.4
8787,165.3
8790,70.1
8791,169.7
8792,77.6
8793,144.7
8794,161.5
8797,97.8
8798,151.1
8800,162.2
8803,105.9
8808,83.4
8814,154.9
8815,95.6
8817,82.8
8820,138.0
8821,167.9
8824,96.9
8825,128.8
8826,80.2
8835,74.0
8836,160.0
8838,77.6
8839,90.9
8840,113.8
8841,112.3
8845,92.1
8847,112.1
8849,105.8
8850,77.6
8851,144.0
8854,79.4
8855,156.4
8856,131.4
8858,102.7
8859,133.6
8861,100.8
8864,97.6
8866,110.4
8871,97.4
8872,72.7
8873,95.6
8874,86.4
8876,94.5
8877,155.8
8878,76.3
8881,100.4
8884,109.5
8885,90.5
8887,106.0
8889,158.2
8891,84.0
8892,150.9
8894,151.4
8896,87.9
8898,81.0
8899,108.4
8901,119.0
8903,82.8
8905,91.8
8907,77.6
8908,126.8
8912,148.2
8914,105.7
8915,160.5
8918,108.1
8920,80.2
8921,131.2
8923,103.5
8924,128.3
8925,85.8
8926,88.3
8927,138.5
8931,69.9
8932,107.6
8933,158.1
8936,151.2
8937,99.9
8938,74.5
8939,91.6
8942,100.8
8945,155.8
8946,149.3
8948,151.4
8953,102.3
8954,87.9
8955,167.3
8957,144.3
8959,103.5
8960,76.4
8961,142.2
8962,90.8
8963,163.7
8965,166.9
8966,77.6
8968,147.9
8969,162.5
8973,95.6
8976,124.9
8977,118.1
8978,69.9
8987,88.1
8988,161.1
8989,72.5
8990,92.9
8992,70.1
8995,116.9
8998,94.1
9000,95.6
9003,93.3
9006,95.3
9009,106.1
9010,107.8
9012,82.8
9023,95.6
9025,143.9
9026,78.4
9027,138.7
9034,87.9
9037,99.2
9038,152.9
9040,84.9
9041,79.3
9045,96.1
9047,80.2
9051,148.2
9052,115.8
9053,121.7
9056,129.0
9057,101.7
9058,80.2
9062,76.4
9065,157.5
9066,70.8
9069,82.8
9071,71.4
9072,102.2
9074,94.4
9075,119.6
9077,113.5
9078,79.5
9079,89.4
9080,105.9
9082,139.8
9084,150.4
9086,120.2
9087,76.0
9088,142.3
9090,123.6
9091,166.5
9092,78.6
9093,98.2
9094,90.6
9099,78.4
9103,79.2
9104,90.5
9105,76.5
9108,92.9
9109,118.1
9110,111.3
9112,133.1
9113,164.5
9115,71.5
9116,85.4
9117,149.8
9120,77.8
9121,115.6
9122,74.5
9124,137.1
9126,133.1
9127,80.2
9137,102.0
9138,100.1
9139,85.4
9143,103.1
9144,115.4
9145,75.3
9148,134.2
9149,135.2
9150,69.9
9153,70.2
9154,156.4
9155,152.2
9156,135.7
9157,94.4
9159,150.9
9160,77.2
9161,103.4
9162,164.2
9168,87.9
9169,144.3
9170,71.2
9174,90.5
9175,73.3
9178,88.5
9185,75.4
9186,77.6
9187,165.9
9189,113.2
9190,103.5
9191,134.7
9192,164.2
9193,161.0
9194,71.9
9195,102.6
9196,153.1
9197,72.5
9198,86.8
9205,144.1
9208,77.6
9211,79.6
9215,148.8
9216,72.7
9218,110.9
9220,100.8
9225,73.7
9226,101.5
9228,95.6
9229,143.9
9232,90.5
9235,126.6
9236,71.9
9237,168.3
9239,110.2
9240,159.3
9244,82.8
9249,90.6
9250,144.0
9251,84.1
9252,83.6
9254,83.7
9255,77.6
9256,73.7
9258,169.1
9259,93.2
9260,167.7
9263,83.0
9264,136.5
9265,74.7
9267,82.8
9268,107.8
9269,135.5
9272,79.6
9275,136.3
9278,90.5
9280,131.4
9283,74.6
9284,77.6
9286,145.8
9288,95.6
9289,72.5
9290,100.7
9296,92.4
9300,100.8
9301,80.1
9302,92.8
9303,87.4
9304,88.2
9306,107.9
9307,167.3
9308,149.7
9309,85.8
9310,143.3
9314,87.9
9316,95.4
9322,153.2
9323,111.2
9324,98.3
9325,77.6
9326,82.6
9328,100.4
9331,120.1
9335,99.8
9336,72.5
9337,150.4
9338,130.9
9340,112.8
9343,70.5
9344,96.4
9346,121.2
9348,72.5
9349,112.9
9350,96.8
9351,144.5
9353,143.0
9358,128.3
9359,95.6
9360,105.7
9361,113.7
9366,115.4
9368,137.0
9370,77.6
9371,132.5
9372,156.7
9374,94.3
9379,136.2
9381,125.0
9382,87.9
9383,132.5
9384,87.7
9385,117.2
9387,93.2
9391,110.5
9392,147.4
9394,85.4
9396,103.5
9399,87.8
9401,108.4
9402,166.0
9403,107.1
9405,75.1
9406,103.3
9407,154.7
9408,96.8
9409,146.4
9416,72.5
9418,109.0
9420,85.8
9421,148.8
9425,157.2
9426,121.1
9427,72.5
9428,132.0
9430,111.7
9431,100.0
9433,96.7
9436,148.3
9437,106.9
9439,100.8
9440,94.9
9446,154.9
9452,90.5
9453,139.8
9455,85.9
9457,157.8
9461,147.7
9462,164.9
9463,82.8
9466,162.4
9467,109.4
9470,142.0
9471,136.7
9473,103.8
9475,80.2
9476,126.1
9478,139.9
9479,140.0
9480,110.8
9481,146.2
9482,158.1
9484,127.7
9486,82.8
9487,158.8
9488,144.8
9490,85.4
9497,95.6
9500,90.3
9501,161.1
9502,145.5
9503,108.8
9505,162.4
9508,75.1
9509,85.1
9510,80.3
9511,117.5
9513,85.7
9514,115.8
9515,134.5
9516,163.4
9520,165.1
9521,100.8
9524,144.5
9525,124.7
9527,92.5
9528,97.1
9532,164.0
9533,87.9
9535,98.7
9536,124.9
9538,120.0
9539,112.9
9540,136.9
9544,75.1
9546,72.6
9549,148.5
9552,109.3
9554,123.8
9555,72.5
9556,99.6
9557,117.0
9558,133.9
9559,131.6
9562,145.2
9566,145.9
9567,72.5
9568,148.7
9570,77.7
9574,79.6
9575,156.0
9579,98.2
9580,137.4
9583,120.0
9584,80.2
9585,159.7
9586,121.5
9589,89.7
9590,82.8
9594,116.2
9595,72.9
9596,72.3
9597,150.6
9598,117.4
9600,108.0
9602,85.4
9603,117.2
9604,86.6
9608,153.0
9611,70.4
9613,85.4
9617,79.5
9619,123.6
9623,112.4
9624,77.6
9626,118.2
9627,125.4
9628,141.2
9632,125.6
9635,72.5
9638,84.0
9641,143.2
9645,127.4
9646,81.8
9648,69.9
9650,167.9
9651,167.9
9652,109.8
9653,89.6
9655,146.8
9659,100.8
9660,148.3
9661,114.2
9665,88.4
9666,134.2
9667,153.8
9668,144.9
9670,169.1
9671,90.5
9675,133.3
9677,108.9
9682,75.1
9683,140.3
9684,104.4
9687,110.5
9689,161.7
9690,89.1
9692,80.9
9693,83.9
9694,75.1
9697,163.1
9699,156.1
9700,128.9
9705,80.2
9709,159.9
9711,71.1
9717,95.6
9719,109.5
9720,127.3
9721,120.6
9725,136.5
9727,169.3
9729,77.6
9734,81.0
9737,134.2
9738,140.3
9740,95.6
9745,108.3
9746,99.2
9749,116.0
9750,132.0
9751,90.5
9752,115.1
9753,137.2
9754,111.2
9755,158.9
9756,92.4
9757,102.9
9758,130.0
9759,73.3
9761,165.6
9762,80.2
9767,80.7
9768,105.0
9769,147.3
9774,75.1
9775,72.8
9776,110.1
9781,141.8
9783,126.8
9784,97.2
9785,128.5
9786,75.1
9787,146.1
9788,78.1
9789,92.6
9790,97.2
9793,97.2
9796,117.6
9797,90.5
9802,136.6
9804,153.3
9805,135.7
9806,90.5
9807,138.6
9808,77.6
9810,123.3
9811,80.0
9812,74.6
9813,126.3
9819,149.7
9820,95.6
9822,96.5
9830,142.8
9831,93.1
9834,165.5
9836,156.5
9837,119.4
9838,91.7
9839,77.4
9841,95.1
9843,85.4
9844,124.4
9845,80.4
9847,71.0
9849,98.3
9851,135.4
9854,77.6
9856,129.0
9857,135.8
9859,147.2
9861,74.8
9862,101.2
9863,159.9
9864,86.2
9865,161.2
9866,72.5
9867,85.1
9868,126.2
9869,158.2
9871,155.3
9873,162.6
9877,93.1
9878,110.4
9880,124.4
9881,73.3
9882,166.5
9884,157.6
9885,130.2
9886,94.6
9887,84.4
9888,80.2
9890,165.5
9893,147.0
9895,95.8
9896,159.5
9898,163.5
9900,90.5
9902,100.2
9903,96.1
9904,85.6
9909,76.0
9910,101.9
9911,77.5
9912,85.4
9915,76.1
9916,117.8
9918,168.4
9922,79.6
9923,77.6
9924,153.7
9925,162.8
9927,80.0
9929,162.1
9931,108.2
9934,75.1
9935,78.0
9936,148.7
9937,79.9
9939,140.2
9942,78.6
9945,119.6
9946,67.4
9947,90.3
9948,83.5
9949,140.5
9954,128.3
9955,100.9
9956,154.8
9957,93.1
9959,71.6
9960,83.5
9962,160.6
9963,136.9
9968,82.8
9970,70.4
9972,167.1
9975,122.1
9979,150.3
9980,90.5
9981,78.8
9982,79.2
9985,83.3
9987,123.4
9988,155.1
9990,99.9
9991,83.7
9992,85.4
9996,118.5
10000,139.7
10003,72.5
10004,147.3
10005,130.8
10007,167.0
10010,117.6
10011,121.0
10012,119.1
10014,99.5
10015,77.6
10016,112.9
10017,130.5
10018,93.9
10021,148.9
10027,78.0
10028,75.1
10029,161.8
10030,119.9
10031,131.5
10035,81.1
10036,168.6
10037,82.2
10039,127.8
10040,82.8
10042,98.6
10043,95.0
10046,85.2
10047,104.8
10048,157.7
10049,77.6
10050,93.7
10051,162.0
10052,91.8
10053,75.1
10056,75.1
10057,129.7
10058,113.3
10059,136.2
10060,108.9
10062,110.7
10063,95.3
10064,104.4
10065,69.9
10070,86.7
10071,102.3
10073,145.8
10074,119.7
10077,101.2
10078,100.8
10080,77.5
10081,83.9
10083,106.3
10086,118.7
10087,150.9
10088,163.4
10091,82.8
10092,116.7
10093,124.3
10094,140.5
10095,97.6
10101,122.6
10103,67.4
10104,161.0
10106,112.6
10108,130.5
10111,120.7
10112,168.2
10114,129.8
10115,168.1
10117,93.1
10119,73.1
10121,80.6
10122,169.0
10123,140.1
10124,104.1
10125,115.1
10126,163.9
10129,90.5
10133,161.7
10141,77.6
10150,90.8
10151,106.4
10152,120.5
10153,69.9
10154,158.7
10157,155.2
10158,88.4
10159,133.8
10160,78.6
10161,85.6
10162,110.4
10163,146.0
10165,106.2
10166,64.8
10167,106.7
10169,95.9
10170,157.4
10171,117.6
10173,136.3
10175,78.3
10178,155.9
10179,85.4
10180,135.4
10181,97.4
10182,153.9
10184,70.5
10185,151.8
10186,120.9
10188,165.6
10189,112.1
10191,82.8
10193,88.0
10195,74.1
10196,140.0
10200,114.5
10201,150.8
10204,72.5
10208,157.7
10210,70.3
10211,133.8
10214,151.3
10215,110.9
10216,98.2
10217,130.0
10219,137.2
10221,168.8
10226,150.4
10227,80.0
10228,87.9
10229,83.6
10230,84.1
10231,117.2
10233,86.9
10236,120.2
10237,81.1
10241,72.5
10243,105.1
10247,149.3
10248,86.1
10249,92.9
10250,125.2
10252,88.1
10253,125.6
10254,67.4
10255,98.4
10258,123.6
10259,117.1
10260,156.6
10265,122.6
10266,77.6
10267,105.8
10268,130.6
10270,129.5
10271,73.2
10272,97.3
10277,73.9
10278,93.1
10281,145.1
10282,96.8
10284,130.5
10287,81.6
10289,107.3
10290,148.2
10291,77.6
10292,140.5
10293,163.6
10294,104.7
10296,73.0
10299,155.3
10301,147.4
10303,64.8
10305,89.4
10309,166.7
10310,164.4
10312,162.8
10313,86.5
10316,90.5
10317,134.3
10320,129.2
10321,162.4
10322,70.8
10323,162.9
10326,98.9
10329,85.4
10331,134.0
10332,163.6
10336,105.9
10337,118.9
10339,168.1
10341,77.6
10344,129.9
10346,116.4
10349,94.0
10351,82.8
10352,124.0
10353,75.1
10357,155.1
10358,72.4
10360,100.0
10363,132.2
10365,67.4
10366,161.0
10367,141.2
10371,102.9
10372,100.1
10374,131.3
10375,157.2
10377,82.6
10379,87.9
10382,146.2
10383,146.1
10389,79.6
10390,135.6
10391,82.8
10392,98.8
10393,125.6
10394,150.0
10396,98.8
10397,158.4
10403,72.5
10406,82.9
10407,73.6
10411,78.5
10413,121.0
10414,125.5
10416,100.8
10417,131.0
10418,72.3
10421,92.2
10422,104.4
10423,168.1
10428,125.9
10429,87.9
10431,141.0
10434,72.5
10441,169.5
10442,72.5
10445,116.5
10447,128.5
10450,81.5
10454,84.6
10455,87.9
10456,92.2
10458,136.1
10459,142.5
10460,141.9
10462,95.1
10463,161.8
10465,94.0
10467,82.8
10468,142.0
10469,129.6
10472,71.4
10475,151.4
10476,125.3
10478,165.8
10479,82.8
10480,161.5
10483,148.4
10484,129.2
10485,100.6
10488,146.8
10490,124.5
10491,72.5
10493,97.8
10495,127.6
10496,143.7
10497,153.4
10498,130.3
10499,113.0
10503,133.8
10504,62.2
10507,138.9
10512,105.9
10513,85.3
10515,130.8
10517,87.9
10520,124.3
10521,71.5
10523,76.7
10524,74.8
10525,103.2
10526,116.0
10527,93.4
10528,145.6
10529,80.2
10531,107.1
10532,159.4
10533,78.3
10535,101.8
10540,114.4
10542,69.9
10543,79.3
10550,92.3
10552,136.4
10553,76.9
10554,90.5
10556,128.8
10559,125.2
10566,82.8
10567,84.0
10570,92.0
10572,72.0
10575,98.0
10577,117.9
10579,75.1
10580,109.8
10581,131.4
10585,134.0
10586,154.9
10587,99.6
10588,100.1
10589,147.4
10590,119.9
10592,69.9
10593,160.9
10595,102.3
10597,157.6
10600,70.9
10601,98.2
10603,88.4
10604,69.9
10605,144.4
10606,160.1
10609,87.4
10610,100.1
10611,70.5
10613,73.2
10614,78.0
10615,140.9
10616,95.6
10618,100.8
10619,142.0
10623,104.2
10624,164.2
10627,109.8
10628,80.8
10629,85.4
10630,123.5
10632,101.5
10633,98.2
10634,165.7
10635,162.8
10638,108.4
10640,153.4
10641,126.3
10642,75.1
10644,107.9
10646,86.2
10650,86.5
10651,115.2
10653,93.9
10654,90.5
10655,146.3
10656,92.2
10657,84.4
10658,149.5
10660,137.6
10663,99.1
10667,82.8
10672,88.1
10674,92.2
10675,78.3
10676,134.0
10677,162.2
10678,83.9
10679,75.1
10683,108.7
10691,67.4
10693,74.6
10694,72.0
10696,152.8
10697,130.5
10698,109.2
10699,160.5
10700,139.0
10701,130.0
10702,114.3
10703,69.9
10705,79.9
10707,99.5
10710,85.7
10713,83.9
10715,83.1
10716,100.2
10717,87.9
10718,110.7
10719,124.2
10720,146.9
10721,160.5
10722,105.9
10723,94.1
10724,87.6
10725,110.6
10726,130.4
10729,77.6
10731,117.5
10735,169.1
10737,70.5
10739,92.1
10741,62.2
10742,82.6
10743,105.5
10744,73.3
10748,91.5
10751,153.9
10753,128.6
10754,90.5
10758,120.0
10763,100.2
10766,87.9
10767,148.0
10768,152.1
10769,70.8
10771,85.1
10777,111.8
10778,137.1
10779,75.1
10780,74.9
10781,127.6
10783,134.3
10787,91.2
10789,131.9
10790,118.9
10791,69.9
10792,118.7
10798,130.4
10799,70.2
10800,134.6
10801,88.4
10803,128.2
10804,64.8
10806,104.2
10808,79.9
10809,84.6
10810,154.2
10814,107.7
10815,141.8
10816,87.9
10817,98.1
10818,119.2
10819,121.4
10822,106.8
10823,167.0
10827,100.9
10828,80.2
10830,142.7
10833,127.9
10835,132.2
10837,159.9
10840,92.7
10841,98.6
10842,72.5
10843,148.0
10847,142.7
10848,167.7
10849,83.7
10852,93.4
10854,95.6
10855,166.2
10856,135.1
10858,116.9
10864,161.6
10866,85.4
10870,123.4
10872,77.5
10873,103.1
10874,99.0
10876,143.4
10878,72.5
10884,153.8
10886,114.4
10888,148.2
10891,72.5
10892,81.8
10893,99.6
10895,145.7
10896,89.6
10897,131.4
10900,161.2
10901,162.0
10903,67.4
10906,137.0
10909,167.4
10913,112.8
10916,87.9
10918,112.1
10920,112.8
10924,75.8
10927,87.7
10929,75.1
10931,117.1
10935,159.6
10941,62.2
10942,111.8
10943,82.5
10944,148.4
10945,86.0
10946,78.7
10947,140.0
10948,102.1
10951,124.7
10953,90.5
10960,110.7
10961,77.4
10962,142.1
10964,76.0
10965,83.2
10966,82.8
10967,76.9
10968,81.4
10969,117.8
10970,124.7
10973,162.7
10974,72.4
10975,132.9
10976,117.8
10978,112.8
10979,72.5
10984,103.5
10987,83.5
10989,89.8
10990,118.6
10991,72.5
10992,123.9
10994,128.6
10995,77.2
10997,83.8
10998,151.9
11000,121.7
11001,98.4
11003,69.9
11006,121.3
11009,111.4
11011,161.2
11014,78.4
11016,80.2
11019,98.6
11022,85.2
11023,101.2
11028,72.5
11030,72.2
11036,72.9
11037,144.6
11038,115.4
11039,103.7
11040,160.8
11041,69.9
11042,127.0
11043,123.8
11049,160.8
11052,84.9
11053,94.3
11054,95.6
11057,139.7
11059,90.7
11061,96.0
11062,104.5
11064,135.9
11066,87.9
11069,120.2
11070,108.0
11071,131.3
11073,82.7
11075,117.9
11077,166.4
11078,72.5
11079,141.4
11080,80.3
11085,135.9
11086,90.2
11090,75.1
11091,138.3
11093,111.3
11096,127.0
11098,158.2
11099,104.1
11101,91.0
11103,69.9
11106,122.4
11107,74.1
11110,79.8
11111,97.5
11113,157.1
11114,151.5
11115,150.4
11116,80.2
11117,86.4
11120,112.8
11126,99.3
11128,67.4
11130,113.1
11131,156.6
11132,157.7
11133,157.2
11135,106.9
11139,150.5
11141,67.4
11144,118.8
11146,169.3
11148,101.6
11150,104.5
11153,95.6
11157,166.2
11158,161.0
11159,118.9
11162,153.4
11164,137.3
11165,82.8
11166,101.4
11169,145.1
11171,131.4
11172,167.7
11173,96.0
11175,114.1
11176,99.4
11179,67.4
11181,112.6
11182,86.5
11183,151.4
11184,127.8
11190,140.8
11191,77.6
11192,153.0
11193,72.2
11194,110.7
11195,83.8
11196,70.6
11197,111.3
11201,83.0
11203,77.6
11206,126.7
11209,102.7
11213,123.4
11215,80.2
11219,103.4
11223,81.0
11224,151.8
11228,67.4
11230,75.4
11234,112.2
11235,82.6
11239,114.7
11240,111.8
11241,64.8
11243,119.2
11245,129.7
11249,93.1
11252,102.0
11253,93.1
11254,72.2
11258,114.1
11259,147.8
11261,95.7
11265,157.7
11266,93.1
11267,156.6
11268,77.3
11269,127.6
11270,100.1
11271,156.9
11272,135.7
11273,160.1
11275,88.6
11276,148.7
11278,75.1
11280,99.3
11281,119.3
11282,125.0
11287,155.7
11290,82.8
11293,163.5
11295,139.9
11298,143.0
11299,70.6
11300,161.1
11301,167.2
11302,77.6
11303,142.3
11304,116.4
11305,157.7
11307,107.4
11308,156.4
11309,99.1
11311,135.5
11315,115.9
11316,82.8
11317,90.4
11318,135.0
11321,123.0
11322,79.4
11326,115.3
11328,72.5
11332,138.1
11334,164.7
11337,168.5
11339,84.4
11340,62.2
11343,94.3
11347,114.5
11349,143.1
11351,85.6
11353,90.5
11356,75.6
11357,126.7
11359,140.3
11360,101.7
11363,141.8
11364,109.5
11365,80.2
11366,110.0
11367,143.0
11368,71.2
11370,89.7
11371,133.0
11372,137.1
11375,154.9
11378,64.8
11386,148.4
11387,150.8
11390,80.2
11397,112.6
11398,70.4
11399,76.7
11401,83.8
11403,82.8
11406,149.4
11410,85.2
11413,152.2
11415,82.8
11417,154.1
11419,159.1
11420,142.0
11423,121.8
11426,120.3
11427,67.4
11428,96.8
11429,108.8
11430,95.3
11431,166.5
11434,124.3
11435,90.5
11437,145.3
11438,112.3
11439,115.1
11440,127.6
11441,59.6
11442,72.3
11444,149.0
11446,86.6
11447,167.7
11448,124.0
11450,110.5
11453,90.5
11460,142.4
11462,133.8
11465,90.5
11466,139.7
11467,108.1
11470,155.2
11473,134.0
11474,95.3
11476,161.7
11478,80.2
11479,159.1
11480,157.7
11485,129.9
11486,72.4
11488,168.5
11490,93.1
11496,161.7
11497,98.0
11502,80.2
11503,141.5
11504,75.2
11505,156.7
11506,84.6
11507,132.2
11509,146.4
11511,79.4
11513,126.4
11514,91.5
11515,77.6
11517,75.0
11519,135.3
11523,159.0
11525,70.1
11526,80.8
11528,67.4
11529,103.2
11535,109.2
11537,117.5
11539,148.7
11540,64.8
11543,123.1
11545,139.1
11549,140.8
11551,76.0
11552,95.6
11553,157.8
11554,91.7
11555,122.4
11556,121.0
11561,133.9
11564,142.8
11565,82.8
11566,73.6
11567,95.5
11572,76.8
11573,98.2
11575,97.2
11576,76.4
11578,72.5
11579,110.6
11582,159.4
11584,104.0
11585,138.7
11586,153.4
11587,89.1
11588,133.4
11590,87.9
11592,80.3
11597,121.5
11598,91.7
11599,101.0
11602,90.5
11604,102.0
11614,120.6
11615,85.4
11617,89.7
11618,132.4
11619,71.2
11620,162.2
11621,121.6
11625,101.8
11626,98.2
11627,77.6
11628,81.0
11629,154.1
11631,115.1
11633,96.2
11635,79.1
11637,162.7
11640,67.4
11641,73.7
11647,158.9
11649,149.0
11651,135.7
11653,90.5
11655,110.5
11656,130.6
11659,139.4
11661,134.6
11664,90.4
11665,80.2
11668,140.2
11671,113.6
11672,80.7
11675,121.6
11677,75.1
11678,108.9
11680,168.1
11681,121.7
11682,112.2
11683,78.5
11685,127.1
11686,152.7
11689,98.2
11690,108.5
11692,105.6
11693,143.6
11694,122.1
11695,136.4
11696,86.0
11697,76.6
11700,157.0
11702,90.5
11703,141.9
11706,156.5
11709,103.3
11710,167.9
11715,80.2
11718,90.7
11719,89.0
11720,105.7
11721,123.9
11722,128.8
11723,112.2
11724,114.0
11725,85.0
11727,69.9
11728,107.0
11729,106.5
11730,93.9
11737,94.7
11738,135.6
11739,147.0
11740,64.8
11745,120.9
11746,98.2
11749,108.8
11752,93.1
11755,135.9
11756,79.4
11757,160.5
11759,140.0
11764,82.8
11765,103.5
11771,74.3
11773,138.1
11774,123.9
11778,69.9
11779,96.8
11780,112.5
11782,124.8
11783,130.5
11784,90.8
11785,151.5
11788,147.6
11790,87.9
11791,70.6
11792,148.9
11793,104.1
11795,85.8
11797,152.6
11798,87.9
11800,145.4
11801,113.0
11802,87.9
11803,126.0
11806,134.7
11809,95.5
11810,77.0
11814,77.6
11816,107.1
11817,143.9
11818,76.1
11821,102.0
11823,157.5
11826,107.1
11827,75.1
11830,100.0
11831,80.6
11834,93.9
11835,150.4
11837,116.7
11840,77.6
11841,89.0
11842,161.5
11843,123.5
11846,126.4
11847,117.2
11849,158.6
11850,154.2
11851,133.9
11852,93.1
11853,146.6
11857,92.4
11858,156.5
11861,154.5
11863,165.0
11864,149.3
11865,80.2
11867,116.9
11868,162.0
11870,165.0
11871,81.6
11872,157.9
11877,67.4
11880,120.1
11881,84.0
11884,82.8
11885,143.2
11886,135.2
11888,162.2
11889,95.6
11890,89.8
11901,95.6
11902,148.0
11903,76.1
11904,114.3
11908,78.3
11910,77.3
11911,152.7
11912,141.6
11915,77.6
11916,97.9
11921,89.3
11922,137.5
11923,118.9
11925,158.8
11927,72.5
11928,166.4
11936,104.9
11938,135.9
11939,67.4
11940,154.9
11942,139.2
11947,114.7
11948,117.0
11952,85.4
11953,145.7
11954,153.4
11959,148.4
11960,160.3
11961,163.5
11964,77.6
11967,137.8
11968,128.3
11969,117.5
11970,107.6
11972,141.0
11975,113.5
11976,147.2
11977,72.5
11978,110.3
11979,115.5
11981,99.6
11983,130.7
11985,142.3
11986,107.8
11987,155.5
11988,89.5
11990,95.6
11992,147.9
11995,71.6
11997,131.5
12000,106.7
12002,85.4
12003,86.1
12004,152.4
12006,98.2
12007,83.8
12008,137.4
12011,138.2
12012,106.5
12013,148.0
12014,75.1
12016,132.4
12017,165.7
12019,88.2
12021,153.8
12022,127.9
12026,72.5
12027,146.0
12028,94.4
12029,132.4
12034,71.3
12035,72.1
12036,139.3
12037,117.8
12038,94.3
12039,75.0
12040,75.1
12041,81.4
12042,119.3
12048,134.1
12050,81.4
12051,160.8
12052,90.5
12056,102.9
12060,144.5
12063,79.6
12064,77.6
12065,76.9
12066,140.9
12068,161.0
12070,111.9
12071,73.1
12072,73.3
12073,110.1
12077,64.8
12078,126.1
12080,141.8
12081,136.9
12083,154.5
12084,161.0
12085,129.8
12088,156.4
12089,93.1
12093,161.9
12094,90.3
12095,101.9
12099,120.8
12101,85.4
12102,141.4
12106,105.8
12108,159.4
12110,130.0
12111,80.8
12113,127.0
12114,77.6
12117,117.2
12124,79.1
12126,95.2
12127,80.2
12130,94.2
12132,159.6
12133,120.5
12136,111.3
12139,69.9
12140,133.4
12142,155.3
12143,137.9
12146,94.0
12150,85.6
12151,80.2
12152,157.7
12154,79.2
12157,169.5
12162,119.5
12163,83.9
12164,69.9
12168,135.7
12169,112.3
12176,84.6
12177,67.4
12179,121.8
12181,101.0
12183,123.9
12186,96.4
12187,158.9
12189,95.6
12190,160.2
12193,168.9
12194,119.8
12198,82.9
12199,70.3
12201,85.4
12207,151.1
12208,138.9
12212,143.5
12214,67.4
12216,135.8
12221,72.1
12222,109.1
12223,75.0
12226,77.6
12228,100.4
12229,144.6
12230,149.0
12232,102.0
12233,128.9
12235,125.9
12238,103.8
12239,80.2
12240,90.8
12241,84.3
12242,157.7
12244,110.1
12248,135.2
12250,143.0
12252,85.4
12253,157.9
12254,139.6
12256,89.8
12258,93.4
12259,159.9
12261,154.5
12262,161.0
12264,72.5
12266,108.1
12272,141.3
12276,64.8
12278,153.3
12280,90.1
12284,71.3
12287,160.7
12288,75.7
12289,93.1
12290,73.8
12295,75.2
12296,152.1
12297,128.9
12300,76.6
12301,87.9
12303,114.3
12308,81.4
12313,70.4
12314,72.5
12315,164.1
12319,155.4
12321,123.2
12322,74.5
12324,122.7
12325,168.2
12326,80.2
12327,93.1
12329,139.9
12330,97.9
12331,103.5
12332,158.1
12334,130.0
12339,80.2
12341,88.0
12345,138.3
12346,132.2
12350,93.0
12351,80.2
12352,162.3
12356,140.6
12357,133.3
12359,111.7
12360,78.9
12363,67.4
12366,147.0
12369,109.4
12370,123.4
12371,134.3
12375,121.2
12376,151.1
12377,67.4
12379,84.0
12380,83.7
12381,133.5
12382,122.0
12383,104.9
12388,168.4
12389,95.6
12396,146.1
12397,100.3
12399,115.9
12401,85.4
12404,139.7
12405,95.6
12406,115.8
12408,70.4
12410,104.7
12413,67.4
12417,141.8
12419,77.4
12425,152.8
12426,80.2
12427,169.8
12430,73.6
12432,104.9
12433,124.8
12434,91.2
12436,148.0
12438,94.5
12439,77.6
12442,156.2
12445,113.3
12447,163.0
12448,130.5
12449,131.9
12450,99.0
12451,82.8
12452,84.0
12454,125.8
12457,168.7
12459,144.7
12461,84.0
12463,112.2
12464,67.4
12466,93.3
12468,169.9
12469,143.3
12471,105.6
12473,72.9
12474,142.8
12476,64.8
12478,110.6
12481,118.6
12482,117.9
12484,156.7
12486,120.9
12488,93.1
12489,117.9
12491,157.0
12494,82.5
12498,123.1
12499,151.0
12500,80.2
12502,91.7
12503,162.7
12504,113.2
12507,122.6
12508,136.5
12509,105.8
12514,64.8
12516,78.8
12519,135.5
12522,157.9
12523,148.2
12525,86.1
12526,85.4
12528,162.4
12530,87.2
12531,85.9
12532,112.5
12534,113.5
12535,121.5
12538,77.6
12541,139.1
12542,71.1
12543,139.9
12547,89.5
12548,134.4
12551,80.2
12552,78.6
12553,109.5
12554,151.7
12556,86.9
12557,125.0
12558,134.1
12560,137.6
12561,141.4
12562,166.7
12563,67.4
12564,70.1
12565,99.1
12566,128.4
12569,150.8
12570,126.6
12571,80.6
12572,102.3
12574,132.2
12576,59.6
12579,118.0
12580,85.2
12581,102.3
12583,130.3
12589,85.4
12591,119.6
12592,99.6
12593,124.9
12594,88.8
12595,125.7
12600,166.0
12601,82.8
12602,123.2
12605,101.7
12607,162.4
12610,161.8
12611,164.1
12613,72.5
12614,99.1
12616,147.3
12618,80.9
12620,164.7
12622,108.8
12625,90.5
12626,118.3
12632,128.3
12633,127.2
12634,165.3
12635,83.9
12636,165.7
12638,156.3
12639,80.2
12641,156.7
12645,105.1
12647,79.3
12649,123.3
12651,75.1
12655,78.0
12657,81.4
12662,167.7
12663,67.4
12665,122.6
12670,73.9
12671,157.3
12672,106.1
12676,69.9
12678,74.4
12679,141.8
12685,88.4
12687,97.0
12688,95.6
12689,140.4
12691,88.1
12693,164.8
12694,126.1
12699,158.9
12700,80.2
12701,105.0
12702,116.3
12703,75.0
12705,93.3
12706,71.7
12707,84.1
12708,89.6
12711,82.3
12712,143.1
12713,64.8
12714,85.0
12715,133.4
12721,76.4
12723,120.7
12726,87.9
12727,153.6
12728,73.6
12729,97.5
12730,127.2
12731,166.9
12732,110.2
12733,134.3
12734,104.5
12738,85.4
12739,169.5
12740,86.2
12742,155.1
12743,110.8
12748,91.1
12749,81.9
12750,75.1
12753,126.1
12756,108.4
12760,158.6
12761,71.4
12762,165.2
12763,64.8
12764,133.9
12765,72.0
12768,83.6
12769,96.2
12770,87.3
12773,108.5
12774,141.1
12776,67.4
12777,83.9
12778,140.2
12779,127.4
12780,106.3
12786,117.0
12788,87.9
12790,149.3
12791,133.5
12792,169.4
12798,139.7
12800,102.7
12801,82.8
12802,158.4
12803,139.0
12804,150.7
12807,146.3
12808,100.5
12809,164.6
12813,72.5
12814,166.1
12815,106.7
12816,110.8
12817,147.7
12820,119.6
12821,75.0
12824,108.0
12825,98.2
12826,160.3
12827,148.9
12829,106.2
12831,100.4
12833,164.0
12834,91.9
12835,103.0
12837,76.6
12838,90.5
12839,108.1
12840,112.9
12841,124.9
12842,123.6
12843,152.3
12844,105.4
12847,157.4
12850,89.9
12851,75.1
12854,144.8
12856,96.8
12859,89.8
12861,99.7
12863,69.9
12865,144.1
12866,92.9
12867,164.0
12868,105.3
12870,124.7
12871,112.9
12875,72.5
12877,86.0
12880,111.6
12881,119.5
12882,113.4
12885,109.2
12888,95.6
12893,100.0
12895,101.3
12896,85.4
12897,156.1
12898,151.1
12899,117.3
12900,85.4
12903,122.5
12904,70.5
12905,120.8
12906,130.9
12907,94.4
12908,147.3
12910,135.0
12911,147.1
12913,69.9
12914,131.0
12916,91.8
12925,95.6
12929,152.9
12930,95.2
12931,94.4
12934,167.5
12936,113.1
12937,129.7
12938,82.8
12939,103.7
12940,123.6
12941,105.6
12943,146.3
12944,149.0
12947,101.9
12948,76.0
12950,72.5
12952,169.5
12953,73.2
12954,87.5
12955,96.9
12956,116.3
12958,143.3
12959,70.8
12961,115.8
12962,69.9
12964,98.0
12966,161.8
12969,145.8
12971,145.8
12972,126.7
12976,67.4
12977,139.7
12984,114.7
12985,161.5
12988,80.2
12990,119.0
12992,84.2
12996,167.2
12999,101.5
13000,72.5
13002,133.5
13008,162.2
13009,136.7
13011,166.9
13012,59.6
13016,70.5
13018,126.2
13019,72.9
13024,112.2
13025,87.9
13026,103.5
13027,169.3
13029,81.0
13031,73.8
13034,83.3
13036,139.7
13038,87.9
13039,70.5
13040,169.2
13042,72.3
13043,88.5
13045,126.2
13046,101.2
13050,75.1
13052,104.3
13053,158.5
13059,83.9
13063,75.1
13065,116.4
13066,96.5
13067,138.4
13069,137.2
13071,93.3
13073,92.4
13075,67.4
13078,119.1
13081,155.8
13082,145.8
13083,88.8
13084,149.7
13087,82.8
13090,142.5
13093,80.1
13096,84.2
13097,135.7
13098,127.6
13100,80.2
13101,97.5
13102,156.9
13103,110.1
13106,88.5
13108,116.1
13109,96.4
13112,125.1
13113,75.1
13116,154.0
13119,108.0
13121,88.3
13124,136.8
13125,100.8
13127,81.1
13129,75.1
13130,106.3
13131,92.3
13132,89.2
13135,141.5
13137,105.0
13138,85.4
13143,99.3
13147,165.5
13150,96.0
13151,69.9
13152,145.7
13154,167.7
13157,149.8
13160,152.4
13163,85.4
13164,132.6
13174,128.5
13176,85.4
13178,102.4
13187,77.8
13188,136.6
13189,80.2
13190,162.3
13192,104.4
13194,105.7
13195,145.6
13196,92.0
13199,115.4
13200,73.1
13201,69.9
13202,146.5
13206,83.6
13207,88.6
13209,154.5
13213,64.8
13214,111.6
13215,90.0
13217,114.2
13219,108.5
13222,169.8
13225,90.5
13227,84.0
13228,78.7
13229,101.7
13230,117.6
13232,166.3
13236,141.9
13238,146.2
13239,80.2
13241,144.7
13243,146.1
13247,95.7
13249,80.2
13250,145.3
13251,64.8
13252,72.9
13254,95.8
13255,81.9
13256,167.6
13259,135.5
13260,109.2
13262,71.4
13263,85.4
13264,132.1
13265,75.9
13266,127.1
13269,78.4
13273,153.2
13274,94.0
13275,149.0
13276,85.4
13277,93.5
13278,131.8
13286,103.6
13288,77.6
13290,77.4
13293,144.5
13300,64.8
13302,164.1
13303,101.1
13304,73.2
13306,103.0
13308,131.6
13310,129.0
13312,84.3
13314,59.6
13315,152.1
13317,161.4
13318,140.4
13320,111.9
13321,92.8
13324,150.4
13326,90.5
13327,164.8
13333,165.2
13334,91.5
13338,85.4
13340,148.2
13341,152.8
13342,123.1
13343,125.6
13349,165.7
13350,72.5
13351,100.9
13353,104.4
13356,163.6
13361,135.8
13363,95.6
13365,135.0
13367,75.7
13369,106.9
13372,151.6
13376,87.9
13378,110.1
13379,106.6
13380,155.9
13381,84.5
13382,87.6
13383,142.2
13385,80.7
13388,75.1
13389,95.5
13392,117.1
13393,146.7
13394,114.2
13395,116.7
13396,130.6
13397,76.4
13400,141.8
13401,67.4
13404,99.3
13405,72.4
13407,98.5
13408,95.9
13412,159.5
13413,67.4
13414,122.1
13417,140.7
13418,134.7
13421,94.9
13423,158.3
13425,90.5
13432,107.3
13434,161.5
13436,78.5
13437,73.8
13438,77.6
13444,135.3
13448,85.7
13449,168.1
13451,62.2
13452,118.4
13457,81.9
13458,134.3
13459,102.1
13461,110.8
13462,138.3
13463,87.9
13464,81.5
13466,137.3
13470,116.8
13475,85.4
13476,82.7
13477,160.3
13478,166.0
13479,150.9
13480,161.0
13481,91.4
13486,86.2
13487,81.2
13488,77.6
13493,112.7
13495,138.5
13497,78.3
13498,75.4
13500,69.9
13505,120.3
13506,92.9
13507,131.9
13511,85.7
13512,129.4
13513,62.2
13515,94.6
13516,126.7
13518,77.6
13522,102.2
13526,82.8
13528,91.8
13529,116.1
13535,147.8
13537,81.4
13538,77.6
13540,72.7
13542,83.7
13543,121.4
13544,115.1
13546,70.1
13547,134.3
13550,69.9
13551,104.6
13554,129.5
13556,131.9
13557,142.9
13559,107.3
13562,98.2
13573,89.6
13576,85.4
13577,95.4
13578,101.8
13579,71.0
13581,168.8
13584,70.6
13585,147.6
13587,107.7
13588,72.5
13592,150.7
13593,94.4
13597,119.4
13598,131.3
13600,69.9
13605,158.7
13608,144.5
13609,101.0
13610,104.6
13611,75.5
13613,69.9
13614,129.4
13615,120.3
13617,115.3
13618,109.7
13620,93.8
13621,147.9
13622,97.2
13624,130.5
13625,85.4
13626,141.9
13629,90.6
13630,110.8
13633,139.0
13634,137.9
13635,99.8
13636,76.9
13637,141.1
13638,72.5
13639,84.6
13644,148.9
13650,64.8
13651,124.2
13652,79.6
13653,77.6
13654,94.4
13655,124.9
13658,83.2
13662,87.3
13663,90.5
13664,74.8
13665,145.0
13667,80.0
13669,94.5
13670,107.5
13674,80.1
13675,82.8
13678,101.1
13680,84.9
13681,79.9
13685,123.5
13687,69.9
13688,124.7
13689,106.2
13693,93.6
13694,73.2
13695,125.0
13699,89.7
13700,75.1
13702,143.1
13703,158.1
13706,137.2
13707,122.3
13712,142.4
13713,72.5
13714,133.7
13725,85.4
13730,92.2
13731,154.1
13733,93.8
13734,126.5
13736,136.8
13737,72.5
13738,78.6
13739,163.8
13740,117.9
13741,94.6
13743,108.0
13744,71.3
13745,144.9
13750,64.8
13755,129.3
13756,100.6
13758,118.6
13759,118.2
13760,74.6
13761,72.3
13762,93.1
13767,82.9
13768,95.7
13769,141.7
13775,87.9
13777,148.1
13779,166.7
13780,161.3
13781,115.7
13783,113.4
13784,96.9
13785,106.5
13786,149.4
13787,149.4
13788,77.6
13795,137.1
13796,153.8
13798,102.1
13799,88.0
13800,77.6
13801,115.9
13803,122.9
13805,78.1
13806,81.0
13808,148.1
13809,145.3
13811,132.2
13812,72.5
13814,149.9
13815,100.4
13818,96.0
13820,106.3
13824,130.6
13825,80.2
13826,84.2
13827,109.5
13831,103.8
13832,152.3
13833,130.0
13835,115.4
13836,119.9
13838,69.9
13840,93.6
13842,114.6
13843,138.4
13844,81.6
13846,145.5
13848,120.1
13849,111.5
13850,64.8
13851,84.1
13855,112.6
13856,128.5
13861,110.1
13862,95.6
13864,83.4
13865,110.2
13867,152.9
13871,162.4
13873,114.1
13875,85.4
13877,91.9
13880,72.5
13881,106.3
13883,90.7
13884,79.8
13887,69.9
13889,124.4
13892,155.2
13895,117.8
13896,98.6
13897,169.3
13898,86.6
13899,75.1
13902,84.0
13904,138.7
13905,162.8
13910,146.1
13913,75.1
13914,98.9
13917,108.1
13918,76.9
13920,99.7
13921,109.1
13924,108.1
13925,82.8
13929,119.4
13932,90.5
13933,91.8
13934,99.7
13935,138.0
13937,72.5
13938,77.2
13940,115.7
13941,147.9
13944,138.4
13946,87.4
13947,137.1
13949,64.8
13950,107.5
13952,99.6
13953,92.7
13955,130.1
13958,169.0
13959,143.7
13960,90.7
13961,162.3
13962,93.1
13966,96.2
13971,72.7
13972,95.0
13974,101.3
13975,90.5
13976,123.9
13979,126.5
13982,129.3
13985,160.2
13986,162.7
13987,75.1
13989,91.6
13990,125.1
13991,147.9
13994,93.1
13996,72.8
13999,124.1
14000,87.9
14007,118.6
14008,130.3
14009,134.1
14010,110.2
14012,85.4
14015,92.7
14019,154.3
14020,146.6
14021,127.7
14024,82.8
14027,88.1
14028,165.2
14031,147.9
14034,140.7
14035,164.8
14037,81.4
14038,67.4
14040,134.4
14041,118.3
14043,75.8
14044,103.0
14045,92.3
14047,76.4
14050,64.8
14051,160.8
14056,75.0
14057,144.3
14058,138.6
14059,127.9
14062,95.6
14063,78.2
14064,115.2
14065,82.8
14070,85.7
14071,118.0
14072,121.9
14073,72.0
14074,82.8
14075,123.6
14077,114.6
14081,128.3
14082,168.9
14084,110.0
14087,75.1
14088,75.3
14091,152.7
14096,103.5
14097,114.8
14098,131.3
14099,85.4
14103,149.0
14104,142.7
14109,135.6
14112,82.8
14113,153.3
14114,117.7
14118,98.5
14122,131.4
14124,132.4
14125,82.8
14128,75.7
14130,86.1
14131,156.8
14132,80.6
14137,72.5
14142,82.4
14143,97.9
14144,155.4
14145,149.1
14148,168.8
14149,69.9
14151,105.6
14152,143.8
14160,125.3
14161,95.6
14162,123.5
14166,80.2
14167,164.0
14168,166.8
14173,113.3
14175,82.8
14176,119.3
14177,133.2
14178,138.5
14180,165.8
14181,140.7
14185,110.6
14186,94.3
14187,67.4
14189,169.3
14190,90.0
14193,79.4
14195,129.6
14196,168.1
14199,85.4
14201,106.7
14202,105.2
14203,151.8
14204,144.5
14209,145.3
14212,87.9
14213,80.3
14214,129.7
14217,130.9
14222,91.8
14223,161.4
14224,80.2
14225,120.7
14227,78.9
14232,153.9
14233,91.1
14234,155.3
14236,141.1
14237,67.4
14238,134.8
14239,158.7
14240,75.4
14241,123.0
14242,164.8
14244,139.8
14245,81.4
14247,90.7
14249,64.8
14253,152.3
14254,120.0
14256,112.6
14258,119.4
14260,88.9
14261,138.3
14262,90.5
14263,87.2
14264,108.9
14265,150.2
14269,139.1
14271,112.2
14272,82.1
14273,153.8
14274,85.4
14275,77.7
14276,131.4
14278,122.7
14279,96.8
14280,73.7
14281,154.8
14282,101.0
14283,130.2
14284,75.6
14286,69.9
14291,117.6
14294,86.3
14297,105.7
14298,99.6
14299,87.9
14300,121.6
14301,103.3
14302,92.5
14304,139.5
14306,160.4
14308,152.0
14309,93.4
14310,129.8
14311,128.6
14312,90.5
14313,145.9
14314,82.4
14315,118.2
14316,97.8
14317,143.3
14318,130.4
14321,85.4
14322,161.1
14324,80.2
14327,147.7
14329,159.2
14333,80.6
14335,150.9
14337,69.9
14338,77.0
14341,130.0
14342,144.0
14345,102.3
14346,158.1
14347,76.7
14348,143.9
14349,64.8
14350,168.1
14355,164.9
14357,95.4
14358,119.4
14359,112.1
14361,93.1
14362,88.0
14363,163.5
14365,151.9
14369,169.1
14372,140.7
14374,80.2
14376,110.6
14379,73.7
14381,139.6
14382,109.5
14384,127.1
14385,96.1
14386,95.8
14387,64.8
14388,152.5
14389,142.3
14392,125.5
14393,101.8
14397,79.4
14399,85.4
14400,109.0
14402,147.6
14403,130.3
14406,70.9
14411,90.5
14416,147.2
14418,117.0
14421,110.0
14424,87.9
14425,136.1
14426,103.8
14427,165.8
14431,74.6
14436,128.7
14437,77.6
14441,139.6
14446,100.6
14449,72.5
14450,158.2
14455,127.9
14457,116.5
14458,133.0
14459,161.5
14460,73.2
14461,90.5
14462,168.5
14471,131.1
14472,156.6
14473,140.3
14474,80.2
14478,116.1
14479,133.6
14480,159.2
14483,102.9
14484,164.6
14485,162.6
14486,72.5
14488,111.9
14490,120.8
14492,76.7
14493,90.6
14494,166.3
14497,117.0
14498,98.2
14500,163.4
14501,115.3
14502,117.8
14504,83.6
14510,117.9
14512,85.4
14515,92.6
14517,99.4
14518,71.1
14520,162.0
14522,100.6
14524,77.6
14525,135.0
14526,134.6
14529,143.5
14533,164.5
14536,69.9
14538,79.4
14540,131.7
14545,158.0
14548,69.9
14549,153.9
14550,93.0
14551,150.9
14552,111.2
14556,161.2
14558,88.5
14559,93.5
14560,101.3
14561,90.5
14563,160.2
14564,79.4
14569,124.4
14570,134.9
14572,101.0
14573,96.8
14574,85.4
14575,99.7
14576,167.2
14582,157.3
14586,69.9
14589,97.1
14590,136.9
14591,136.8
14592,85.7
14593,98.0
14599,93.1
14600,150.9
14602,145.4
14604,70.7
14606,130.1
14607,113.9
14609,105.1
14611,85.4
14614,159.4
14616,79.1
14618,136.8
14621,121.5
14622,135.7
14623,80.2
14625,168.0
14627,111.7
14628,97.4
14631,131.3
14633,127.6
14635,80.3
14636,119.5
14637,82.8
14638,89.2
14639,123.9
14640,140.7
14642,159.7
14643,116.7
14647,102.0
14648,153.1
14649,80.2
14652,83.4
14654,153.9
14657,169.0
14661,93.1
14662,138.4
14664,132.4
14667,120.9
14668,152.5
14670,108.6
14672,77.6
14673,77.6
14683,160.2
14684,148.0
14686,64.8
14687,72.7
14690,90.0
14697,108.3
14698,93.1
14702,131.7
14704,88.1
14706,127.8
14707,169.0
14710,73.5
14711,87.9
14714,165.7
14715,94.2
14720,108.2
14721,108.2
14722,128.3
14724,72.5
14725,163.7
14726,112.3
14728,87.3
14731,86.8
14733,104.7
14734,93.2
14736,69.9
14738,108.4
14740,126.9
14741,79.3
14743,76.5
14744,152.3
14748,75.1
14749,148.2
14750,89.2
14751,137.7
14752,153.6
14754,149.3
14756,148.3
14757,100.6
14760,87.9
14763,98.0
14766,133.1
14769,84.9
14773,70.2
14774,80.2
14775,112.5
14778,87.8
14780,144.5
14783,97.0
14785,89.1
14786,72.5
14787,150.6
14788,137.5
14789,123.9
14792,93.0
14794,93.8
14796,90.9
14797,107.1
14798,100.8
14805,163.9
14807,143.8
14808,108.1
14812,82.8
14816,160.3
14818,95.4
14819,73.7
14820,113.5
14823,150.8
14824,67.4
14825,151.2
14826,87.6
14827,94.9
14830,126.2
14831,108.4
14832,132.0
14833,83.4
14835,103.0
14837,82.8
14839,72.1
14841,96.9
14843,104.0
14844,153.3
14845,127.8
14846,104.7
14849,167.4
14850,90.5
14851,155.3
14853,133.4
14855,163.6
14858,150.7
14859,168.9
14861,130.9
14862,85.4
14867,157.9
14868,162.1
14869,154.4
14874,75.1
14875,156.6
14880,94.9
14883,112.7
14884,160.4
14886,64.8
14887,157.4
14891,112.2
14895,102.7
14896,102.3
14899,87.9
14901,79.6
14904,156.2
14912,77.6
14914,110.5
14922,74.5
14923,115.8
14924,67.4
14925,150.3
14931,122.3
14934,70.5
14935,146.2
14937,87.9
14938,149.8
14945,104.0
14947,83.6
14949,80.2
14950,120.9
14953,115.5
14956,163.5
14958,168.6
14959,144.0
14961,72.5
14964,131.1
14965,110.2
14966,107.7
14969,166.3
14972,113.0
14974,62.2
14975,128.9
14978,131.1
14981,95.8
14982,71.6
14983,140.1
14987,62.2
14988,115.8
14990,155.3
14993,134.2
14994,157.2
14995,156.7
14999,85.4
15000,113.3
15004,75.1
15005,154.6
15008,132.1
15009,160.8
15011,80.2
15013,78.1
15014,166.3
15015,91.5
15016,122.4
15019,149.6
15022,165.1
15023,163.2
15024,67.4
15026,114.8
15028,103.7
15030,118.0
15032,105.8
15034,113.2
15036,102.6
15037,85.4
15038,135.3
15040,77.7
15041,142.8
15046,112.2
15049,80.2
15051,72.0
15052,79.6
15053,119.1
15054,99.3
15055,126.3
15061,142.3
15062,75.1
15063,88.1
15064,98.4
15066,90.7
15067,166.6
15069,131.1
15072,134.0
15074,69.9
15076,113.5
15078,121.7
15079,71.9
15081,167.6
15086,67.4
15087,162.6
15088,102.4
15090,160.9
15092,134.6
15093,148.2
15094,110.9
15095,140.7
15097,149.1
15098,87.9
15099,92.9
15100,104.3
15101,74.6
15102,152.5
15103,144.9
15104,96.4
15106,87.8
15109,126.1
15111,77.2
15112,75.1
15115,153.1
15118,123.7
15120,86.8
15121,103.1
15124,62.2
15125,114.6
15129,100.1
15133,73.3
15135,83.0
15136,90.5
15137,75.6
15138,156.2
15139,155.9
15142,123.9
15146,157.1
15147,169.9
15149,87.9
15150,112.8
15154,87.2
15155,107.6
15156,153.1
15161,72.5
15164,121.4
15166,149.0
15167,132.9
15168,146.1
15172,94.9
15173,134.7
15174,64.8
15176,127.3
15177,145.9
15178,110.7
15180,125.9
15181,75.2
15182,108.5
15183,102.3
15184,105.1
15186,59.6
15189,71.9
15190,154.0
15192,72.2
15195,77.9
15197,146.4
15198,113.9
15199,80.2
15200,127.8
15204,130.1
15206,78.4
15211,72.5
15213,150.7
15215,134.9
15217,70.2
15219,99.4
15223,67.4
15225,162.1
15226,156.0
15232,84.7
15235,156.8
15236,140.8
15237,95.6
15242,116.0
15244,122.4
15245,145.9
15246,74.9
15249,82.8
15252,91.6
15259,102.8
15261,69.9
15263,84.7
15266,164.5
15267,144.7
15272,91.6
15273,69.9
15274,100.4
15275,98.1
15276,132.9
15278,95.8
15279,120.9
15282,129.8
15284,144.7
15286,77.6
15287,141.9
15288,93.3
15290,123.7
15292,137.4
15293,85.1
15295,92.2
15298,93.1
15299,114.0
15302,112.2
15303,117.7
15311,77.6
15313,154.2
15315,160.2
15316,114.8
15317,92.0
15318,82.4
15324,64.8
15325,114.7
15326,98.0
15327,105.7
15328,116.2
15330,112.8
15332,137.5
15334,159.0
15335,108.8
15336,93.1
15338,164.3
15339,114.4
15340,101.3
15341,74.1
15342,131.4
15343,160.9
15344,161.5
15347,130.5
15348,85.4
15351,151.4
15353,96.5
15356,119.6
15358,147.3
15361,75.1
15366,107.4
15367,97.3
15369,98.7
15370,93.9
15371,98.5
15374,77.6
15375,120.2
15376,103.4
15378,128.7
15384,154.8
15386,69.9
15390,114.6
15391,116.0
15392,95.4
15393,152.6
15395,72.7
15398,77.6
15403,145.3
15404,94.0
15405,108.9
15406,112.0
15409,117.5
15411,67.4
15413,72.5
15414,157.2
15415,72.3
15418,156.7
15419,112.1
15420,105.5
15423,62.2
15427,100.8
15436,90.5
15437,114.5
15438,90.0
15439,78.8
15445,101.7
15446,117.1
15448,90.8
15449,90.5
15451,147.7
15452,75.9
15454,128.8
15455,148.9
15456,134.3
15457,74.7
15461,72.5
15469,155.1
15472,143.8
15473,75.1
15474,149.6
15476,107.3
15479,105.7
15483,120.6
15485,69.9
15486,94.2
15488,99.1
15492,96.3
15496,94.4
15497,168.3
15498,80.2
15502,150.0
15503,135.5
15505,112.3
15506,94.6
15507,165.4
15509,161.4
15511,77.6
15515,156.5
15516,83.0
15518,111.2
15521,168.4
15523,67.4
15524,133.1
15532,161.5
15533,137.1
15534,71.3
15536,93.1
15538,165.8
15539,96.0
15542,72.9
15544,170.0
15546,143.7
15547,77.0
15548,82.8
15549,143.6
15550,151.5
15559,128.5
15560,67.4
15561,145.3
15564,106.2
15565,112.1
15566,77.9
15567,138.9
15568,129.8
15569,126.8
15570,143.6
15571,153.4
15573,169.4
15574,77.6
15578,78.7
15579,80.2
15580,158.7
15584,120.2
15586,77.6
15589,144.9
15591,114.8
15592,162.9
15595,110.2
15597,77.7
15598,77.6
15599,143.0
15601,117.0
15603,112.5
15605,79.3
15606,134.3
15607,134.8
15609,121.1
15610,64.8
15612,136.9
15614,98.1
15615,116.2
15616,128.4
15619,110.0
15622,135.1
15623,57.1
15624,148.2
15628,108.3
15633,158.5
15636,90.5
15637,140.8
15638,71.6
15640,107.3
15645,83.3
15646,110.4
15647,167.8
15648,85.4
15649,128.6
15650,71.7
15651,134.2
15652,76.8
15657,141.8
15658,140.1
15660,139.2
15661,72.5
15662,70.4
15663,88.0
15664,140.4
15668,119.6
15670,160.8
15673,85.4
15674,155.5
15675,101.6
15676,153.8
15677,138.0
15678,132.3
15680,112.2
15681,161.5
15683,76.7
15684,75.5
15685,77.6
15686,76.7
15687,157.6
15688,123.2
15690,107.6
15691,100.8
15692,100.8
15695,156.8
15696,91.3
15697,75.1
15699,129.1
15700,79.0
15709,115.4
15711,64.8
15712,144.1
15713,104.0
15714,96.1
15716,99.9
15718,100.2
15719,82.8
15720,88.8
15722,130.6
15723,69.9
15727,98.2
15729,71.7
15731,159.7
15733,157.4
15735,98.2
15737,86.6
15738,142.2
15740,148.3
15744,118.1
15748,90.5
15751,92.6
15752,105.7
15753,78.2
15758,161.6
15759,138.2
15760,69.9
15768,145.5
15773,85.4
15776,110.6
15777,101.0
15778,156.7
15779,119.7
15781,100.2
15784,90.4
15785,80.2
15786,166.9
15787,161.9
15788,77.6
15789,137.4
15792,70.9
15795,105.5
15797,107.4
15798,82.8
15799,96.8
15800,164.5
15801,111.8
15802,101.8
15803,151.5
15806,104.9
15808,165.1
15810,69.9
15811,163.6
15813,147.6
15817,106.5
15818,86.8
15821,81.9
15822,64.8
15825,125.0
15830,102.8
15833,157.7
15834,150.7
15835,75.8
15836,87.9
15837,127.7
15840,100.4
15841,158.6
15843,149.4
15846,77.6
15848,77.6
15852,87.1
15854,169.8
15855,167.9
15857,103.0
15858,150.8
15859,154.0
15860,67.4
15862,167.3
15869,81.1
15871,116.1
15872,145.8
15873,87.9
15875,87.8
15879,123.8
15881,164.2
15885,85.4
15886,79.7
15887,92.0
15888,123.2
15889,165.5
15892,79.2
15893,159.2
15895,146.5
15897,80.2
15904,143.2
15906,169.3
15909,166.1
15910,67.4
15911,76.5
15914,95.8
15917,108.5
15919,95.9
15921,140.4
15922,168.2
15923,59.6
15924,87.3
15925,161.5
15929,80.3
15932,130.8
15934,107.0
15935,87.9
15936,116.3
15937,154.1
15943,167.8
15947,87.9
15953,154.7
15954,154.0
15958,143.6
15960,75.1
15966,80.2
15967,76.3
15969,101.4
15972,117.2
15973,98.2
15977,89.3
15978,79.1
15985,85.4
15988,78.7
15990,142.4
15992,78.8
15993,94.9
15996,103.2
15997,75.1
15998,134.1
15999,106.2
16005,154.9
16010,67.4
16014,165.2
16019,102.1
16020,73.9
16022,67.4
16024,75.9
16027,100.7
16029,71.0
16031,114.1
16032,78.8
16034,141.2
16035,90.5
16040,159.4
16041,131.7
16043,158.8
16045,110.7
16047,131.4
16048,77.6
16051,100.3
16053,146.8
16054,102.0
16055,110.7
16059,153.9
16060,64.8
16061,113.2
16062,144.9
16063,100.5
16064,168.8
16068,100.4
16069,148.3
16072,90.5
16078,144.2
16079,88.4
16080,129.1
16082,84.1
16083,163.9
16084,87.9
16085,155.8
16088,129.8
16091,104.1
16092,75.5
16095,100.7
16097,80.2
16098,78.2
16103,131.8
16104,143.4
16105,80.3
16106,111.9
16107,80.5
16110,75.1
16113,139.5
16122,69.9
16123,108.2
16125,134.1
16133,139.0
16134,79.3
16135,87.9
16142,75.9
16144,145.4
16147,75.1
16148,154.0
16149,140.2
16151,122.6
16152,83.2
16153,136.4
16154,83.4
16156,144.0
16158,110.4
16159,75.1
16161,84.1
16162,152.4
16165,162.5
16166,85.2
16168,78.4
16170,151.1
16171,105.6
16173,98.2
16175,133.8
16177,87.0
16178,148.2
16179,153.6
16180,126.8
16185,90.5
16186,108.1
16191,84.6
16195,122.9
16197,77.6
16200,133.1
16201,119.7
16202,150.0
16203,140.8
16204,144.6
16206,71.1
16207,126.9
16208,83.9
16209,67.4
16210,150.0
16211,133.3
16213,163.7
16216,133.4
16217,119.2
16221,146.0
16222,64.8
16223,125.1
16227,115.6
16229,140.3
16231,85.8
16234,73.1
16235,82.8
16237,166.0
16238,136.1
16240,161.3
16242,96.7
16243,104.0
16244,119.3
16246,82.9
16247,75.1
16254,150.5
16256,125.7
16258,163.9
16259,84.5
16260,64.8
16265,105.0
16267,99.5
16268,88.6
16269,141.7
16272,85.4
16274,74.5
16275,137.7
16282,121.2
16284,85.4
16288,162.6
16289,134.3
16290,140.6
16291,84.7
16294,133.2
16296,69.9
16297,121.6
16299,71.6
16301,108.0
16302,98.8
16305,72.9
16308,149.1
16310,69.9
16311,153.2
16313,96.2
16314,111.9
16315,105.9
16318,100.0
16319,117.7
16320,115.1
16322,72.5
16324,150.5
16325,139.3
16328,130.7
16329,104.1
16334,85.4
16335,141.8
16339,72.3
16341,157.1
16344,133.5
16345,167.2
16346,128.4
16347,75.1
16350,103.0
16352,109.2
16355,138.8
16357,90.4
16359,62.2
16360,79.4
16361,108.9
16364,132.7
16366,105.4
16370,150.5
16371,92.1
16372,90.5
16373,125.9
16377,123.1
16380,162.7
16381,114.3
16382,158.0
16383,104.8
16384,139.7
16385,90.5
16386,161.1
16387,131.3
16389,153.0
16392,77.4
16395,108.9
16396,165.9
16397,77.6
16398,111.7
16399,82.8
16403,162.7
16405,154.3
16407,72.3
16408,78.8
16409,75.1
16416,79.8
16417,142.7
16418,89.4
16419,108.2
16420,162.2
16421,67.4
16426,118.2
16428,128.9
16429,136.5
16433,114.7
16435,77.6
16436,158.2
16437,145.4
16438,131.5
16439,91.4
16441,71.7
16442,102.9
16443,146.0
16447,69.9
16450,143.0
16451,155.7
16452,122.1
16455,149.8
16456,146.5
16457,143.0
16459,64.8
16460,126.0
16461,165.1
16463,127.0
16464,100.8
16468,128.9
16472,90.5
16473,145.3
16474,96.0
16475,150.9
16478,143.1
16479,165.7
16481,93.3
16482,114.0
16484,82.8
16486,126.1
16487,128.9
16491,158.3
16493,165.7
16496,64.8
16497,110.9
16498,91.5
16499,75.6
16504,126.4
16506,142.9
16508,82.6
16509,75.1
16512,143.0
16514,119.3
16516,150.8
16522,75.1
16526,95.6
16531,121.1
16532,121.7
16534,85.4
16535,151.5
16537,122.9
16539,147.0
16541,153.5
16542,103.2
16545,138.9
16546,72.5
16556,84.9
16559,62.2
16560,159.1
16563,106.8
16565,136.4
16566,136.2
16568,136.4
16569,157.3
16571,85.9
16572,87.9
16574,160.6
16575,141.7
16576,160.1
16578,146.0
16579,81.1
16581,91.8
16582,94.5
16584,82.8
16585,91.0
16586,113.7
16590,121.0
16592,104.3
16593,123.5
16594,99.8
16596,72.5
16597,164.2
16598,112.2
16602,160.7
16603,133.9
16604,120.2
16605,131.1
16607,109.9
16608,102.4
16609,77.6
16610,125.2
16618,118.0
16621,72.5
16623,96.9
16624,98.1
16626,102.5
16629,127.5
16630,103.5
16631,77.9
16633,105.7
16634,75.1
16635,90.1
16638,163.8
16639,102.2
16645,104.5
16646,148.7
16647,64.8
16652,103.0
16655,132.9
16656,162.4
16659,62.2
16660,140.0
16661,118.9
16662,123.7
16663,115.7
16664,97.6
16667,166.7
16670,76.4
16671,93.1
16673,133.6
16674,167.1
16675,108.6
16676,158.7
16678,162.9
16680,112.9
16684,85.4
16686,102.3
16687,82.0
16690,144.8
16692,81.8
16695,131.7
16696,64.8
16697,119.3
16708,95.7
16709,80.2
16713,92.4
16717,131.3
16718,105.6
16719,101.8
16721,72.5
16722,146.8
16726,147.9
16727,113.6
16728,158.7
16730,131.1
16734,77.6
16735,114.1
16739,129.9
16740,93.8
16743,142.3
16744,161.4
16745,75.0
16746,64.8
16747,165.5
16749,105.1
16758,64.8
16759,120.4
16760,88.4
16764,153.5
16768,109.6
16770,89.2
16772,90.5
16774,73.8
16775,145.9
16777,102.7
16780,117.5
16782,133.9
16784,80.2
16786,87.3
16789,98.1
16793,82.6
16794,98.1
16796,64.8
16797,124.1
16800,144.5
16803,100.5
16808,80.2
16809,136.3
16810,86.7
16813,108.2
16814,125.3
16815,126.8
16816,122.0
16817,95.4
16818,135.5
16819,74.9
16820,78.3
16821,80.2
16825,133.4
16829,120.6
16830,73.4
16834,77.6
16837,70.8
16838,90.4
16839,161.0
16840,125.4
16841,77.2
16843,155.4
16844,157.0
16845,113.9
16846,64.8
16847,94.2
16850,149.5
16851,122.7
16859,57.1
16863,110.0
16864,144.7
16867,80.4
16871,87.9
16874,104.6
16875,96.1
16876,111.7
16878,71.6
16882,94.5
16883,80.2
16885,85.4
16887,109.3
16896,69.9
16897,131.5
16898,113.7
16899,155.6
16901,163.1
16902,152.5
16904,110.3
16907,140.1
16908,119.6
16909,82.8
16911,74.8
16912,103.3
16914,90.6
16915,162.5
16918,155.3
16920,99.9
16921,77.6
16922,127.3
16923,80.7
16927,139.1
16928,141.1
16929,152.1
16931,104.9
16933,72.5
16934,114.4
16936,132.7
16937,138.3
16940,150.3
16944,106.4
16946,64.8
16951,74.3
16953,168.1
16954,157.9
16955,164.9
16956,167.0
16957,142.3
16958,62.2
16961,155.0
16965,134.9
16968,135.6
16970,125.7
16971,90.5
16974,156.1
16978,137.4
16979,115.4
16980,157.5
16982,124.9
16984,82.8
16987,78.9
16992,85.9
16996,64.8
17000,88.2
17002,96.0
17006,164.2
17008,82.8
17010,107.1
17011,117.8
17013,121.2
17015,98.9
17017,109.5
17018,114.6
17019,131.0
17020,80.2
17031,153.2
17034,80.2
17035,153.1
17037,153.0
17039,78.2
17040,148.1
17041,126.3
17043,127.0
17046,69.9
17048,80.0
17049,120.5
17053,115.6
17054,107.5
17055,76.9
17058,62.2
17059,127.3
17060,138.8
17062,99.9
17063,149.3
17069,130.4
17070,86.5
17071,82.8
17075,90.6
17078,80.0
17080,161.8
17081,132.0
17082,87.8
17083,75.1
17085,145.9
17086,146.0
17087,121.7
17088,134.4
17089,136.3
17092,117.6
17095,64.8
17098,114.0
17099,113.4
17100,107.9
17101,101.9
17102,159.8
17106,118.1
17108,90.5
17113,106.2
17116,100.3
17119,131.3
17121,85.4
17123,134.9
17127,140.8
17128,133.9
17131,100.6
17132,168.4
17133,69.9
17134,113.2
17135,117.1
17136,119.3
17137,103.6
17138,111.1
17139,126.4
17141,165.1
17142,142.6
17144,153.0
17145,62.2
17147,96.6
17148,131.2
17150,159.8
17152,118.7
17154,164.7
17157,139.4
17158,64.8
17159,99.8
17163,81.3
17164,91.1
17166,129.4
17171,90.5
17172,116.7
17176,169.4
17183,80.2
17184,136.4
17188,81.0
17189,165.0
17191,134.3
17195,116.2
17196,69.9
17197,155.9
17202,146.6
17207,131.5
17208,87.9
17209,96.3
17210,136.3
17211,151.9
17212,135.9
17213,139.4
17214,118.4
17219,87.3
17220,82.8
17221,164.3
17223,116.8
17225,120.0
17226,110.1
17229,80.4
17233,72.5
17234,104.3
17235,134.8
17237,143.1
17238,118.8
17241,79.5
17245,123.4
17246,67.4
17247,157.6
17248,107.4
17250,91.4
17252,136.5
17255,85.2
17258,64.8
17261,156.1
17263,123.6
17264,166.7
17266,105.0
17267,71.8
17268,147.5
17269,145.0
17270,85.4
17272,148.6
17273,153.7
17278,118.6
17281,129.8
17282,153.3
17283,75.1
17284,106.2
17286,120.2
17288,135.4
17289,110.2
17292,85.5
17295,59.6
17297,159.8
17308,85.4
17310,123.1
17311,160.9
17313,132.8
17314,81.8
17316,89.3
17320,85.4
17321,86.8
17323,91.3
17324,143.6
17325,148.7
17330,133.8
17332,114.4
17333,72.5
17336,100.1
17342,116.5
17344,95.2
17345,64.8
17347,150.7
17349,169.7
17351,114.5
17353,141.6
17354,95.4
17355,167.9
17357,64.8
17359,136.9
17361,118.9
17362,150.9
17364,152.1
17365,94.6
17369,99.1
17370,125.6
17371,82.8
17373,141.4
17375,127.2
17377,169.5
17379,121.8
17380,91.7
17381,163.9
17383,75.1
17384,107.3
17385,146.7
17386,73.7
17389,116.1
17392,89.1
17395,69.9
17397,152.5
17400,80.1
17402,77.8
17403,104.8
17404,137.8
17405,135.9
17406,73.9
17408,95.6
17410,80.5
17411,145.0
17414,164.0
17416,116.0
17419,149.1
17420,87.9
17422,97.0
17425,73.3
17430,124.3
17433,69.9
17439,140.1
17440,87.8
17441,122.9
17444,101.4
17445,69.9
17446,79.8
17448,160.4
17449,85.6
17452,144.9
17453,106.5
17457,151.0
17458,67.4
17459,93.6
17461,125.0
17465,149.1
17466,128.5
17468,114.5
17469,137.7
17470,85.4
17473,105.3
17476,89.8
17478,112.8
17482,80.2
17485,170.0
17486,106.8
17487,137.4
17488,105.6
17491,122.7
17492,110.8
17495,67.4
17497,118.9
17499,115.4
17501,83.3
17505,123.8
17506,97.0
17507,78.5
17508,93.1
17510,91.4
17515,150.1
17520,90.5
17521,152.0
17522,145.3
17523,131.2
17524,77.4
17528,89.0
17529,130.4
17531,161.1
17532,77.6
17533,101.0
17534,119.2
17535,101.0
17537,131.4
17538,113.2
17542,155.1
17545,80.2
17546,162.3
17549,101.4
17551,141.2
17553,142.7
17557,72.5
17559,111.4
17560,146.9
17562,158.4
17563,165.1
17565,96.8
17567,166.3
17568,89.6
17569,146.8
17570,80.2
17574,167.3
17577,136.8
17583,72.5
17584,136.4
17585,161.4
17586,137.4
17587,92.8
17588,106.4
17591,132.9
17592,154.3
17593,126.1
17594,85.3
17595,72.5
17598,152.4
17599,121.4
17605,167.4
17606,104.3
17607,100.8
17608,164.9
17609,136.9
17611,93.7
17614,142.9
17616,151.0
17620,85.4
17621,164.6
17622,140.8
17625,150.0
17626,84.1
17627,120.7
17628,146.4
17629,109.0
17630,163.9
17634,67.4
17636,80.4
17638,151.0
17641,137.2
17645,165.7
17646,87.9
17648,149.7
17649,86.6
17650,96.4
17655,135.8
17657,102.2
17658,85.4
17660,85.9
17665,107.8
17669,162.3
17671,77.6
17673,128.6
17677,149.0
17680,124.7
17682,150.6
17683,67.4
17685,84.7
17687,103.3
17689,131.9
17694,100.6
17695,67.4
17696,167.7
17697,145.9
17698,115.2
17699,96.4
17702,132.9
17704,107.8
17706,107.2
17709,93.1
17710,91.5
17713,107.5
17714,151.9
17717,98.0
17720,162.5
17721,85.4
17723,80.9
17724,79.8
17726,147.2
17727,123.2
17728,155.0
17729,160.5
17733,75.1
17738,104.3
17740,91.4
17743,162.1
17744,88.8
17745,98.2
17746,166.6
17749,138.7
17750,84.4
17754,90.6
17758,90.5
17760,152.6
17761,134.3
17764,80.0
17767,129.3
17769,114.5
17770,165.1
17771,77.6
17772,112.9
17773,100.1
17774,80.0
17775,147.9
17776,97.9
17778,119.7
17779,78.0
17780,108.2
17783,72.5
17786,83.5
17792,72.8
17794,77.5
17795,136.2
17796,69.9
17797,94.4
17799,94.3
17800,96.7
17801,76.0
17802,79.7
17804,88.5
17805,86.9
17806,90.7
17807,108.9
17808,93.1
17809,89.6
17810,120.8
17811,157.8
17812,109.5
17813,99.1
17814,160.8
17820,87.9
17821,74.6
17822,127.3
17823,169.1
17824,136.1
17825,118.3
17827,80.8
17828,124.3
17829,147.5
17830,107.7
17833,69.9
17834,144.0
17835,107.3
17837,118.3
17838,135.4
17841,138.9
17846,93.1
17848,76.6
17855,111.6
17858,85.4
17861,165.8
17862,119.9
17865,74.2
17866,124.6
17870,75.1
17871,154.6
17875,109.5
17876,74.9
17877,100.0
17880,120.1
17881,151.4
17882,92.2
17883,72.5
17885,92.6
17887,152.7
17888,86.2
17891,154.5
17892,135.4
17893,149.6
17894,95.7
17895,69.9
17896,112.9
17897,99.9
17898,128.9
17899,78.3
17900,73.7
17901,141.8
17904,138.5
17905,93.1
17907,138.2
17908,85.4
17909,108.7
17913,161.2
17914,149.6
17916,126.9
17918,166.5
17920,141.9
17921,75.1
17925,145.1
17926,134.5
17927,92.9
17932,83.1
17933,69.9
17935,151.4
17937,169.8
17938,140.5
17941,129.6
17943,138.3
17944,82.3
17945,93.1
17946,76.9
17948,156.3
17953,125.9
17955,80.0
17957,90.5
17962,109.7
17966,124.5
17967,128.0
17971,80.2
17977,116.5
17978,71.1
17981,97.7
17983,75.1
17984,81.8
17985,103.2
17986,94.7
17987,129.8
17988,133.8
17989,109.8
17993,83.9
17995,69.9
17996,157.5
17997,165.3
17998,110.2
17999,70.3
18000,87.4
18008,85.4
18010,112.3
18011,143.5
18012,145.7
18015,125.0
18017,121.0
18019,106.7
18020,75.1
18023,97.6
18027,71.0
18030,156.5
18033,75.1
18034,162.8
18035,93.2
18036,147.3
18037,106.8
18040,93.1
18041,120.3
18042,99.8
18044,138.2
18045,98.2
18046,132.2
18048,78.3
18049,110.8
18052,114.9
18053,158.5
18056,102.6
18058,85.4
18060,78.4
18063,101.1
18064,161.8
18068,107.7
18069,91.8
18070,67.4
18071,139.0
18075,104.5
18076,72.6
18078,86.3
18079,78.1
18081,74.7
18082,69.9
18086,150.8
18089,78.8
18091,161.1
18093,94.5
18095,69.9
18096,78.7
18099,103.0
18100,121.3
18103,133.5
18104,140.7
18106,126.6
18107,71.2
18108,85.4
18111,92.1
18113,150.8
18115,156.2
18116,115.4
18119,119.3
18120,72.5
18126,119.3
18127,155.7
18132,59.6
18135,139.9
18136,89.2
18139,104.5
18142,120.0
18143,160.8
18145,85.4
18149,159.3
18150,100.3
18152,83.0
18155,161.0
18157,82.8
18158,139.9
18159,70.5
18165,79.3
18166,109.2
18167,124.1
18168,93.2
18170,67.4
18176,133.5
18181,125.5
18183,72.5
18185,102.1
18187,93.9
18189,108.5
18190,95.9
18193,145.6
18195,69.9
18196,115.4
18199,153.3
18202,115.8
18203,156.6
18204,113.6
18205,76.1
18207,77.6
18209,108.8
18211,92.4
18213,102.5
18216,165.4
18218,154.3
18219,163.1
18220,64.8
18221,149.9
18222,115.5
18233,57.1
18235,133.5
18237,154.2
18241,154.3
18244,133.9
18245,85.4
18247,117.2
18249,93.6
18250,92.8
18252,87.7
18254,128.0
18255,112.0
18257,87.9
18263,152.9
18265,142.5
18266,103.3
18269,145.5
18270,67.4
18272,120.0
18273,168.0
18275,169.5
18278,104.0
18279,147.9
18280,100.2
18282,72.5
18287,98.1
18291,123.3
18292,74.3
18293,100.3
18294,72.5
18295,157.3
18303,113.9
18304,150.2
18306,154.4
18308,77.6
18310,124.1
18311,169.1
18318,108.7
18320,67.4
18321,155.6
18322,154.5
18324,86.2
18325,75.1
18327,129.4
18328,154.9
18330,159.1
18332,59.6
18342,106.0
18343,128.0
18344,82.8
18346,159.0
18356,150.3
18357,75.1
18358,111.4
18359,81.7
18361,80.8
18367,118.4
18369,169.3
18370,64.8
18373,117.3
18379,100.7
18380,115.0
18382,75.1
18386,99.0
18387,144.3
18393,111.8
18394,116.1
18395,75.1
18403,121.2
18407,75.1
18410,149.0
18412,85.2
18416,108.7
18417,127.7
18418,99.6
18419,59.6
18421,103.8
18422,164.3
18428,138.0
18433,54.5
18441,145.8
18442,128.0
18445,85.4
18446,130.9
18447,95.8
18448,138.5
18452,122.8
18454,104.9
18455,111.7
18456,154.3
18457,75.1
18460,107.9
18462,129.0
18463,129.7
18464,162.2
18468,165.4
18469,69.9
18472,141.8
18474,110.8
18475,91.8
18481,83.2
18482,82.8
18484,111.0
18485,124.8
18487,73.4
18488,146.8
18493,114.3
18494,77.6
18496,114.1
18497,115.6
18506,129.6
18507,75.1
18514,116.8
18515,145.7
18517,90.5
18520,67.4
18521,126.5
18527,152.5
18529,84.4
18532,62.2
18539,92.3
18541,116.8
18543,88.4
18544,85.4
18546,144.5
18553,145.9
18555,114.4
18556,72.5
18558,137.0
18560,78.5
18562,164.6
18564,145.9
18565,168.8
18569,82.3
18570,59.6
18572,125.4
18575,111.9
18578,88.7
18580,149.3
18582,75.1
18584,110.7
18585,166.7
18586,135.3
18587,86.8
18588,90.2
18589,93.2
18593,138.4
18594,75.1
18595,147.6
18597,75.2
18601,84.3
18604,131.7
18607,69.9
18610,162.9
18611,95.2
18613,107.9
18617,148.7
18619,59.6
18622,151.4
18623,159.0
18627,153.5
18630,165.2
18631,107.8
18632,51.9
18635,168.5
18638,95.9
18639,92.7
18640,161.7
18642,109.9
18644,77.6
18645,104.4
18647,83.1
18651,104.1
18654,123.8
18657,72.5
18659,109.2
18661,147.9
18662,129.9
18663,79.0
18664,120.6
18665,94.2
18666,141.5
18668,74.9
18669,57.1
18671,148.5
18674,156.1
18679,96.5
18680,123.1
18681,75.1
18682,152.8
18684,103.6
18685,123.2
18686,148.0
18689,104.1
18691,80.7
18692,166.2
18694,80.2
18696,133.2
18697,146.5
18698,122.0
18700,71.0
18702,86.7
18703,105.0
18705,101.1
18707,72.5
18708,84.3
18717,150.2
18719,59.6
18722,102.4
18724,167.4
18725,111.0
18726,169.3
18728,167.1
18729,106.5
18732,59.6
18733,150.1
18737,118.0
18738,156.0
18739,165.1
18740,125.1
18744,85.4
18746,133.8
18750,114.7
18753,109.7
18756,75.1
18763,137.9
18765,74.2
18766,142.2
18768,165.1
18769,57.1
18772,86.9
18778,94.9
18781,77.5
18782,77.6
18785,118.1
18786,160.2
18787,79.3
18789,166.9
18791,160.4
18792,126.0
18794,80.2
18798,166.4
18801,162.3
18802,165.1
18804,147.6
18806,72.5
18807,136.2
18808,124.0
18809,117.2
18810,122.4
18811,118.4
18812,162.0
18814,121.9
18815,90.3
18818,149.8
18819,64.8
18820,77.6
18821,150.1
18823,150.6
18824,126.7
18825,149.7
18828,87.4
18829,151.7
18830,117.4
18832,59.6
18833,136.7
18837,109.2
18840,100.0
18841,112.7
18843,93.4
18844,80.2
18846,146.0
18847,124.2
18849,120.7
18851,117.1
18852,71.9
18853,77.9
18854,74.1
18856,64.8
18862,122.7
18863,101.2
18864,138.5
18869,54.5
18874,85.0
18876,72.1
18878,138.1
18880,143.1
18881,77.6
18883,135.6
18884,70.4
18888,142.3
18889,118.9
18893,69.9
18895,99.8
18899,164.7
18903,76.7
18904,97.5
18905,119.8
18907,69.9
18909,83.7
18910,156.5
18913,76.8
18915,156.8
18916,96.9
18919,62.2
18920,111.5
18921,157.4
18922,102.0
18923,144.0
18924,148.0
18928,105.6
18929,110.6
18931,59.6
18932,138.1
18933,114.7
18935,97.6
18938,152.5
18941,93.0
18942,142.1
18943,75.5
18944,80.2
18945,123.5
18946,146.7
18948,99.2
18949,124.3
18954,163.9
18956,75.1
18959,88.9
18961,71.3
18966,166.8
18967,120.8
18968,119.3
18969,62.2
18971,160.2
18972,138.9
18978,91.6
18979,123.5
18981,82.8
18982,134.4
18986,112.6
18987,149.6
18989,156.4
18993,103.6
18994,72.5
18996,167.8
18997,85.4
18999,83.5
19000,118.5
19003,96.8
19004,136.4
19006,59.6
19008,104.2
19011,140.4
19012,132.1
19013,116.0
19016,79.6
19018,57.1
19021,74.4
19022,80.7
19023,113.2
19024,130.9
19025,154.7
19026,118.3
19030,83.2
19032,57.1
19033,131.7
19035,105.0
19037,127.1
19038,74.6
19039,154.8
19041,85.5
19043,142.4
19044,72.5
19048,105.3
19050,93.8
19051,140.5
19052,167.0
19056,57.1
19057,115.0
19058,70.4
19066,96.9
19068,46.8
19070,134.7
19074,89.8
19076,117.7
19080,104.0
19081,72.5
19083,86.2
19084,160.9
19086,104.4
19089,166.5
19090,133.2
19092,107.2
19093,69.9
19094,102.3
19096,82.5
19097,112.9
19100,91.1
19101,130.4
19102,114.4
19104,98.2
19106,54.5
19108,86.5
19109,71.9
19113,148.8
19114,103.4
19115,163.6
19117,100.3
19118,155.9
19119,51.9
19122,169.5
19125,166.3
19126,161.5
19129,99.9
19131,64.8
19133,151.1
19134,152.7
19135,128.3
19136,85.8
19137,83.0
19141,130.1
19142,121.7
19143,72.5
19144,124.5
19145,139.3
19148,87.8
19151,135.3
19153,165.2
19155,62.2
19157,166.8
19158,161.5
19162,142.8
19164,93.6
19166,162.4
19167,113.4
19169,54.5
19170,148.9
19173,118.0
19175,158.2
19176,95.8
19178,89.1
19181,80.2
19184,100.6
19191,133.0
19193,72.5
19196,104.3
19200,100.4
19201,159.7
19202,121.9
19203,86.5
19204,167.4
19205,107.6
19206,54.5
19209,117.7
19210,103.8
19213,110.6
19215,141.1
19216,100.7
19217,159.4
19218,54.5
19219,156.7
19221,134.8
19222,153.5
19225,131.3
19226,127.1
19228,146.3
19231,57.1
19232,92.6
19234,162.8
19235,134.7
19237,134.1
19239,82.5
19242,117.1
19244,69.9
19246,156.4
19248,166.1
19253,132.6
19255,142.1
19256,57.1
19258,126.8
19260,70.9
19261,76.6
19263,139.9
19264,118.3
19265,117.8
19268,46.8
19270,82.7
19273,157.9
19275,110.6
19277,139.5
19279,166.9
19280,69.9
19281,153.3
19282,82.6
19286,96.2
19288,85.4
19291,73.3
19293,64.8
19296,111.3
19298,130.0
19301,75.3
19303,146.0
19306,49.3
19307,141.8
19308,96.8
19312,153.0
19313,167.5
19316,161.2
19317,137.9
19318,54.5
19319,84.8
19320,94.2
19322,164.4
19323,81.4
19327,116.0
19328,152.0
19329,109.6
19331,51.9
19332,161.1
19333,95.9
19336,166.0
19343,62.2
19344,102.8
19345,127.2
19347,148.8
19352,157.9
19354,133.4
19355,49.3
19359,122.2
19360,82.6
19366,131.0
19368,44.2
19371,92.3
19376,167.9
19380,131.1
19381,69.9
19385,168.5
19387,97.3
19388,150.1
19390,86.4
19393,67.4
19396,127.5
19398,133.7
19400,153.4
19401,166.3
19402,134.7
19403,102.3
19405,49.3
19407,111.7
19412,111.5
19413,139.4
19414,148.8
19416,149.7
19418,51.9
19421,78.2
19427,105.3
19428,156.3
19429,72.0
19431,49.3
19432,86.9
19438,113.1
19442,161.3
19443,57.1
19446,144.2
19452,116.5
19453,147.9
19455,110.3
19456,49.3
19459,71.1
19461,142.0
19462,84.3
19463,126.3
19464,127.5
19468,44.2
19473,140.3
19475,133.6
19479,113.2
19480,67.4
19482,154.2
19483,110.7
19489,156.5
19490,134.5
19492,57.1
19493,100.1
19495,115.2
19498,118.9
19503,154.2
19506,41.6
19508,140.6
19510,101.8
19512,135.9
19513,75.2
19514,162.1
19516,87.6
19518,51.9
19520,94.9
19522,110.1
19523,119.3
19525,84.4
19530,54.5
19533,140.5
19535,76.1
19537,113.3
19538,165.0
19539,151.1
19543,51.9
19547,96.8
19549,127.1
19551,132.2
19552,100.6
19553,93.1
19554,127.5
19555,39.1
19557,128.7
19559,97.7
19560,155.4
19563,143.9
19567,137.2
19568,44.2
19569,156.5
19570,149.1
19572,138.9
19574,87.5
19576,116.9
19577,139.4
19579,103.4
19580,67.4
19582,89.8
19583,152.7
19585,152.6
19588,79.9
19590,92.1
19591,72.0
19592,118.1
19593,62.2
19594,97.7
19597,94.9
19598,159.8
19600,137.9
19601,75.0
19602,168.6
19605,49.3
19606,112.3
19607,80.1
19610,87.9
19611,99.3
19612,117.6
19617,62.2
19619,95.3
19621,133.4
19623,123.9
19625,89.1
19627,151.9
19630,85.7
19631,57.1
19632,94.2
19636,104.7
19638,102.4
19640,77.3
19641,74.8
19642,94.9
19643,51.9
19644,83.2
19647,79.6
19648,72.8
19649,140.9
19651,106.6
19655,41.6
19657,105.6
19658,123.4
19659,119.9
19660,150.4
19661,165.6
19663,96.7
19664,169.8
19667,46.8
19669,75.2
19672,85.2
19673,159.5
19676,151.8
19677,137.5
19678,164.6
19680,72.5
19681,109.3
19682,77.1
19684,129.4
19685,85.6
19687,151.3
19688,155.6
19690,83.2
19692,57.1
19693,93.3
19695,150.1
19698,73.6
19700,118.6
19701,121.7
19702,128.6
19705,44.2
19706,154.4
19707,152.2
19708,143.3
19709,158.6
19710,160.3
19711,104.9
19712,144.3
19713,142.9
19716,101.0
19718,57.1
19719,166.1
19720,163.2
19722,167.4
19723,131.6
19725,157.4
19730,57.1
19734,81.0
19738,139.2
19741,155.8
19742,51.9
19743,101.4
19746,119.6
19747,82.1
19748,163.2
19753,113.2
19755,41.6
19756,93.1
19757,165.9
19758,133.2
19759,83.1
19761,97.8
19763,94.6
19765,154.0
19766,113.1
19768,36.5
19769,144.5
19770,83.4
19773,155.2
19776,137.1
19778,157.3
19779,135.7
19780,59.6
19781,159.2
19783,141.6
19785,93.7
19786,83.1
19787,157.4
19789,70.1
19791,113.6
19792,54.5
19796,77.3
19797,74.2
19799,85.4
19800,101.4
19804,126.2
19805,46.8
19809,108.5
19811,150.9
19812,136.8
19813,112.0
19815,114.5
19817,64.8
19820,157.7
19827,100.6
19828,138.6
19830,57.1
19832,139.3
19834,112.2
19835,161.3
19837,120.5
19839,144.5
19841,129.3
19842,80.9
19843,46.8
19844,77.9
19845,98.5
19847,145.4
19849,143.3
19850,155.0
19852,143.3
19855,36.5
19856,130.0
19867,36.5
19870,118.6
19871,121.3
19874,120.1
19876,79.8
19877,129.4
19879,59.6
19882,73.8
19883,149.9
19884,159.6
19885,135.6
19886,108.6
19888,94.3
19890,122.3
19891,110.8
19892,54.5
19894,120.8
19897,140.8
19898,143.4
19899,78.9
19901,151.7
19902,105.3
19904,112.0
19905,39.1
19907,129.6
19909,169.3
19910,132.8
19911,136.1
19914,108.2
19915,169.3
19917,57.1
19918,145.9
19920,123.6
19923,86.0
19925,117.9
19927,122.4
19928,71.2
19929,164.9
19930,57.1
19931,141.5
19932,85.7
19933,70.2
19934,133.8
19935,125.4
19936,137.3
19938,164.4
19942,49.3
19943,99.0
19949,85.4
19953,89.3
19954,41.6
19956,91.1
19957,112.0
19958,71.8
19959,121.6
19961,142.7
19962,141.2
19964,72.9
19966,123.3
19968,36.5
19971,75.0
19972,110.0
19973,114.3
19974,158.4
19976,146.0
19977,128.4
19980,54.5
19982,168.9
19984,107.1
19986,134.2
19988,104.7
19992,44.2
19995,98.4
19996,124.9
19997,111.2
19998,159.2
20002,96.0
20003,118.1
20004,41.6
20007,126.4
20008,164.4
20009,107.9
20011,121.5
20013,111.8
20015,107.3
20017,59.6
20018,156.8
20020,103.8
20021,119.1
20023,80.1
20025,112.5
20030,57.1
20034,105.4
20035,74.5
20040,136.9
20042,46.8
20044,149.6
20046,152.1
20047,90.7
20049,100.4
20050,162.6
20053,78.9
20054,74.9
20055,36.5
20057,132.6
20059,113.9
20060,128.9
20061,84.7
20062,142.0
20065,83.5
20067,33.9
20069,122.9
20073,166.1
20074,112.9
20075,145.8
20078,91.4
20079,51.9
20080,147.1
20081,140.4
20083,118.2
20084,94.2
20085,137.7
20089,79.9
20091,41.6
20094,119.5
20095,125.7
20096,80.8
20102,148.3
20104,154.0
20105,33.9
20107,80.8
20113,98.3
20116,118.0
20117,54.5
20123,85.4
20127,155.2
20129,49.3
20130,84.4
20132,136.5
20135,83.8
20136,107.5
20139,151.8
20142,39.1
20143,103.7
20144,72.4
20147,75.8
20151,104.2
20152,129.0
20154,36.5
20158,73.1
20161,169.4
20162,142.0
20163,136.6
20164,128.6
20166,125.1
20167,39.1
20168,90.9
20171,154.7
20177,110.1
20179,49.3
20182,115.8
20186,122.0
20189,117.8
20191,101.0
20192,39.1
20193,79.7
20194,91.5
20197,90.2
20198,149.4
20199,98.2
20200,122.6
20204,31.3
20205,147.2
20207,75.9
20211,73.0
20212,77.9
20215,92.3
20216,54.5
20218,85.7
20221,100.7
20224,163.7
20226,168.6
20228,119.2
20229,167.4
20230,54.5
20232,97.8
20233,113.8
20235,126.8
20236,166.2
20237,111.3
20238,169.0
20241,111.3
20242,39.1
20243,108.7
20244,121.2
20246,119.7
20247,89.5
20249,80.0
20250,130.6
20252,107.8
20253,84.5
20254,39.1
20256,85.5
20258,147.8
20259,133.2
20263,75.6
20265,86.6
20266,95.0
20267,36.5
20269,83.0
20270,159.7
20271,98.7
20274,107.2
20277,144.4
20279,41.6
20280,115.2
20281,154.8
20282,165.3
20284,88.4
20289,77.9
20291,36.5
20292,106.9
20293,126.4
20294,74.3
20296,96.2
20299,162.3
20301,155.1
20302,86.6
20303,156.2
20304,28.8
20305,158.3
20306,71.2
20308,76.9
20312,110.3
20314,74.3
20315,124.2
20317,51.9
20322,81.5
20324,88.0
20327,127.9
20328,118.8
20329,41.6
20331,125.3
20333,147.1
20334,118.6
20336,131.4
20337,128.4
20340,108.2
20341,26.2
20345,89.4
20347,78.3
20348,84.1
20350,109.1
20351,102.3
20352,125.2
20354,31.3
20355,151.2
20356,155.8
20359,100.3
20361,85.5
20364,84.5
20366,149.9
20367,33.9
20368,96.0
20369,125.5
20370,95.1
20371,124.4
20375,109.3
20376,142.4
20377,94.4
20378,116.1
20379,44.2
20385,116.2
20386,100.0
20387,74.2
20389,164.3
20390,153.8
20391,33.9
20393,157.1
20394,161.3
20395,73.2
20396,85.2
20397,137.9
20401,133.1
20402,151.2
20403,162.0
20404,26.2
20407,148.8
20409,130.4
20410,94.9
20414,127.4
20416,49.3
20417,70.6
20419,78.5
20421,96.4
20424,163.1
20425,148.8
20427,157.3
20429,54.5
20433,126.8
20438,144.4
20442,41.6
20444,153.1
20445,151.5
20446,150.4
20448,131.6
20451,143.4
20452,154.7
20454,44.2
20457,107.8
20458,135.8
20463,129.9
20466,44.2
20470,158.8
20471,142.6
20477,110.9
20478,44.2
20483,125.2
20487,147.7
20488,98.9
20491,33.9
20494,166.9
20495,92.0
20496,77.8
20497,79.3
20498,145.6
20500,121.6
20503,81.1
20504,28.8
20506,155.8
20507,155.5
20508,133.3
20510,101.2
20512,164.9
20513,104.2
20514,78.6
20516,54.5
20517,140.4
20518,85.7
20521,133.6
20522,114.5
20523,128.7
20524,70.2
20525,101.2
20526,73.9
20528,106.1
20529,44.2
20531,70.1
20535,144.5
20537,149.2
20539,150.7
20540,160.3
20541,31.3
20547,115.3
20548,99.6
20549,151.8
20551,115.9
20553,39.1
20554,91.3
20555,72.2
20556,80.5
20560,150.9
20561,105.4
20564,161.0
20566,97.2
20567,33.9
20574,117.4
20578,164.6
20579,36.5
20580,85.2
20582,102.8
20583,167.7
20586,130.0
20590,149.1
20591,31.3
20592,115.5
20594,96.8
20595,92.2
20596,155.8
20599,163.7
20602,96.6
20603,28.8
20604,131.8
20605,128.1
20607,162.1
20608,122.5
20610,70.4
20613,164.3
20615,94.7
20616,51.9
20621,80.7
20623,92.9
20624,144.8
20625,169.9
20629,46.8
20630,98.9
20632,88.6
20633,133.0
20635,166.3
20636,77.1
20638,153.3
20639,71.7
20641,33.9
20648,86.8
20649,145.9
20650,115.1
20651,93.4
20652,76.5
20653,134.6
20654,44.2
20655,74.5
20660,118.9
20661,164.8
20662,94.1
20663,138.5
20665,73.6
20666,46.8
20673,72.7
20675,123.4
20677,110.6
20678,41.6
20682,103.2
20684,110.7
20685,79.5
20687,102.2
20688,109.6
20690,108.8
20691,31.3
20692,98.9
20695,76.1
20696,114.1
20697,165.1
20699,110.0
20700,129.9
20701,157.7
20702,107.9
20704,23.6
20705,133.6
20709,128.4
20710,121.9
20713,97.2
20716,46.8
20719,95.2
20722,76.9
20723,71.2
20724,135.0
20726,110.5
20728,41.6
20729,80.7
20730,168.8
20732,162.1
20733,115.6
20736,116.9
20737,145.3
20738,114.5
20740,165.0
20741,28.8
20742,146.5
20745,92.2
20750,118.0
20752,127.4
20753,41.6
20757,101.0
20761,89.7
20762,90.2
20763,169.0
20766,41.6
20769,73.7
20774,122.8
20776,81.1
20779,33.9
20780,158.5
20781,114.2
20783,127.4
20785,145.9
20788,153.2
20789,169.3
20790,97.8
20791,23.6
20792,72.4
20795,162.2
20796,96.8
20798,99.4
20802,164.5
20803,26.2
20804,151.0
20805,103.4
20806,129.2
20807,114.8
20808,92.7
20809,93.3
20810,136.2
20814,100.3
20815,54.5
20816,126.5
20818,110.7
20819,140.1
20820,104.2
20821,164.0
20823,92.9
20824,168.6
20825,118.0
20826,138.0
20829,46.8
20832,151.9
20835,142.7
20836,106.0
20837,160.7
20838,157.6
20839,145.7
20841,31.3
20842,101.1
20843,139.5
20845,128.6
20846,88.0
20849,132.7
20850,168.0
20851,91.4
20852,108.6
20853,46.8
20855,81.2
20856,144.0
20861,117.8
20863,153.1
20866,51.9
20867,93.5
20868,169.4
20873,91.6
20876,126.8
20877,100.3
20878,49.3
20880,112.8
20881,161.3
20883,97.3
20889,119.5
20890,36.5
20897,142.3
20899,162.9
20900,89.6
20903,28.8
20908,144.6
20909,126.0
20910,104.9
20913,122.6
20914,155.8
20915,167.0
20916,46.8
20920,94.4
20922,132.2
20924,156.6
20925,135.9
20928,39.1
20934,108.8
20936,115.3
20938,79.2
20939,140.1
20940,28.8
20941,169.1
20948,165.9
20950,97.3
20951,90.1
20953,46.8
20956,82.4
20959,146.5
20960,161.7
20964,109.1
20965,163.7
20966,39.1
20967,113.0
20968,106.5
20971,125.9
20973,80.1
20974,157.3
20978,28.8
20979,152.5
20984,116.3
20986,82.5
20988,158.1
20989,82.1
20990,21.0
20991,83.6
20992,72.4
20994,139.7
20995,128.7
20996,131.2
20997,163.4
21000,107.1
21001,96.3
21002,100.2
21003,18.5
21006,90.9
21008,129.3
21015,41.6
21017,139.4
21018,114.8
21020,80.2
21021,99.6
21023,167.7
21024,134.6
21026,106.1
21028,36.5
21030,70.5
21032,157.4
21033,129.9
21034,93.7
21036,136.1
21037,117.5
21040,154.0
21041,26.2
21044,79.9
21045,124.1
21046,109.5
21047,165.4
21049,128.3
21050,85.1
21051,102.2
21052,130.4
21053,41.6
21056,155.2
21062,75.5
21063,72.4
21065,39.1
21070,162.4
21072,108.9
21073,75.4
21077,74.8
21078,31.3
21083,78.0
21084,165.8
21085,151.9
21089,136.7
21090,28.8
21093,145.0
21096,78.3
21097,102.7
21098,77.4
21099,77.0
21100,128.5
21102,89.3
21103,28.8
21105,95.8
21106,95.2
21107,147.1
21108,132.3
21112,121.4
21114,83.9
21115,46.8
21116,78.8
21118,93.1
21121,74.7
21125,144.0
21128,33.9
21130,121.2
21131,135.5
21134,89.3
21135,155.4
21137,136.6
21138,107.5
21140,21.0
21143,127.3
21144,75.1
21147,138.0
21148,165.0
21150,161.3
21151,152.0
21152,41.6
21153,155.3
21155,117.8
21156,89.7
21160,163.2
21161,77.4
21163,96.4
21166,46.8
21167,96.2
21177,82.5
21178,31.3
21183,137.6
21186,164.4
21190,23.6
21191,116.6
21193,132.8
21194,132.8
21201,111.3
21202,21.0
21205,160.1
21207,106.3
21211,101.7
21214,111.9
21215,33.9
21218,130.6
21219,82.6
21222,77.2
21226,169.1
21227,124.7
21228,31.3
21229,157.9
21231,72.1
21232,91.3
21234,78.2
21239,142.7
21240,23.6
21242,109.8
21249,98.7
21251,118.1
21253,49.3
21261,76.3
21265,41.6
21270,133.0
21271,167.5
21272,92.3
21275,72.9
21276,89.0
21277,26.2
21278,96.2
21279,81.6
21280,132.8
21285,130.8
21288,112.4
21289,21.0
21291,88.9
21292,161.3
21293,130.9
21295,76.6
21297,154.8
21303,36.5
21310,113.5
21312,71.5
21315,46.8
21316,94.4
21317,92.5
21320,127.7
21322,76.8
21327,33.9
21328,127.2
21331,92.8
21332,88.0
21334,104.3
21340,23.6
21342,148.8
21343,123.4
21344,158.6
21346,133.5
21349,110.2
21351,115.4
21352,44.2
21354,80.2
21357,108.1
21358,130.3
21359,116.1
21361,96.0
21364,154.6
21365,44.2
21369,126.8
21372,154.6
21374,86.5
21376,88.7
21377,88.5
21378,33.9
21379,131.5
21380,146.2
21383,95.8
21390,31.3
21395,138.4
21396,97.8
21397,166.1
21398,150.1
21400,144.7
21401,112.9
21402,28.8
21404,140.3
21406,124.2
21407,120.7
21409,157.2
21410,158.4
21413,77.4
21414,33.9
21417,148.3
21418,92.3
21422,74.6
21423,95.8
21425,130.5
21426,122.0
21428,28.8
21429,102.0
21430,120.0
21432,78.5
21433,103.4
21434,140.2
21435,129.4
21439,136.0
21440,26.2
21442,139.4
21443,147.1
21446,161.0
21448,139.9
21450,86.7
21452,46.8
21453,118.1
21454,117.9
21455,131.0
21457,87.2
21458,105.6
21459,79.8
21460,85.2
21463,141.3
21464,96.6
21465,44.2
21468,109.0
21472,93.5
21473,86.8
21474,111.2
21475,158.6
21476,166.7
21477,28.8
21478,109.5
21480,72.2
21481,84.6
21482,102.4
21483,99.7
21484,123.5
21485,70.7
21486,132.2
21488,104.5
21489,131.9
21490,31.3
21492,126.8
21494,119.0
21495,147.0
21496,142.1
21501,167.0
21502,28.8
21504,149.7
21506,89.6
21510,153.1
21513,167.7
21515,36.5
21524,155.3
21525,101.6
21527,33.9
21529,104.6
21530,126.4
21532,134.3
21536,84.6
21537,142.0
21539,26.2
21540,96.9
21541,78.5
21542,76.4
21543,137.5
21544,168.8
21546,166.3
21547,115.6
21551,91.8
21552,46.8
21554,122.8
21557,84.8
21558,105.5
21561,165.8
21564,116.3
21565,39.1
21566,113.1
21570,80.3
21572,106.5
21573,125.6
21576,143.0
21577,28.8
21578,86.0
21581,90.8
21584,149.6
21586,124.3
21590,33.9
21592,106.1
21594,165.6
21598,73.2
21599,164.8
21601,139.9
21602,36.5
21603,127.8
21605,86.6
21607,95.3
21609,133.7
21610,83.9
21611,116.6
21613,166.2
21614,33.9
21617,153.9
21619,87.1
21621,81.1
21622,158.8
21623,138.3
21624,122.2
21625,90.3
