0,15.9
1,3.0
2,41.6
4,23.9
5,51.9
6,18.1
7,36.5
9,9.2
10,18.5
11,15.4
12,0.5
14,8.2
17,33.9
19,15.1
20,13.9
21,6.4
23,54.5
25,18.0
26,9.1
27,12.9
31,19.1
32,-2.1
33,0.4
36,18.6
37,19.0
40,18.2
41,44.2
42,9.8
43,18.1
46,21.4
48,13.9
50,19.9
51,5.6
54,15.9
56,9.2
58,21.6
59,3.6
60,13.3
62,11.7
68,8.0
69,23.6
70,13.2
76,14.7
78,26.2
79,24.8
80,8.9
82,5.8
84,7.1
86,11.3
88,31.3
91,16.5
94,19.9
95,19.2
97,31.3
98,23.1
100,15.1
106,41.6
107,15.8
109,11.6
112,16.3
113,3.7
116,33.9
121,16.1
122,11.0
123,25.7
128,33.9
130,7.9
131,19.9
133,14.9
137,10.3
138,28.8
147,0.6
148,28.8
149,0.1
150,20.3
156,11.9
158,21.0
159,17.8
161,12.9
163,14.5
164,17.8
165,22.1
166,7.4
168,23.6
170,7.2
171,24.8
179,15.9
185,5.0
187,15.8
189,15.9
194,13.1
200,10.8
202,7.9
203,10.7
206,6.3
210,8.2
211,21.8
212,13.5
213,16.4
214,5.4
215,19.1
217,13.9
220,13.3
225,13.9
226,25.9
227,7.6
229,15.2
230,10.8
231,0.7
232,7.5
233,0.3
235,15.7
236,17.2
237,13.4
239,10.3
240,26.2
242,0.3
243,25.1
245,3.1
247,23.1
249,0.8
250,3.0
252,10.4
256,25.0
257,1.0
259,10.4
261,18.5
262,14.4
264,23.4
265,0.5
268,14.2
271,5.6
273,7.0
274,21.7
276,9.3
277,2.7
280,8.2
285,5.8
286,14.5
289,13.3
295,14.0
296,14.4
297,22.7
298,20.9
299,8.6
300,8.2
301,7.9
306,21.2
307,14.3
309,13.3
310,16.1
311,19.2
314,6.8
315,22.2
317,25.9
318,14.4
319,8.2
320,10.8
322,22.5
323,0.4
329,15.9
331,24.1
339,10.8
340,11.6
342,9.6
345,0.3
346,0.0
349,1.2
350,8.2
352,9.0
358,10.1
359,13.3
364,17.6
366,2.6
367,23.1
368,20.2
369,10.8
370,9.3
372,5.3
373,23.7
375,24.7
376,10.1
377,2.5
378,6.8
379,18.5
382,14.7
383,21.5
384,25.4
385,17.3
386,23.3
388,7.6
389,11.7
391,3.0
392,1.3
394,19.8
396,23.8
397,23.7
400,10.8
405,17.0
409,13.8
410,5.6
411,4.2
413,22.8
415,20.9
417,0.8
419,8.2
420,16.4
422,5.3
425,9.7
429,15.9
430,17.9
433,1.2
434,7.1
436,7.7
439,8.2
441,24.7
447,6.6
448,15.9
452,15.6
453,24.4
459,10.8
462,10.2
463,7.1
466,8.9
469,11.0
470,8.2
471,23.5
472,10.4
474,23.8
476,4.3
479,10.8
480,24.4
481,9.8
482,20.5
485,3.3
486,8.4
487,8.9
488,15.5
489,10.8
490,22.7
492,3.6
496,24.2
499,18.5
500,20.0
501,4.8
504,22.2
508,3.2
509,5.6
510,0.2
513,6.1
514,24.2
515,16.8
516,7.7
519,13.3
522,20.6
523,6.7
525,8.0
526,23.4
527,7.9
530,5.6
531,7.5
533,20.4
535,9.7
537,5.8
539,5.6
541,11.4
542,4.4
547,22.1
548,13.3
549,21.3
550,13.9
558,8.1
559,8.2
561,12.7
562,2.1
566,3.6
568,15.9
570,8.7
574,9.0
576,2.6
578,10.8
580,18.2
581,22.4
582,15.5
585,0.1
587,6.5
588,8.2
592,3.3
594,4.8
595,2.4
596,22.6
597,24.2
598,20.3
599,10.8
602,6.2
603,20.2
604,3.7
609,13.3
613,25.2
614,12.9
617,11.1
619,21.0
620,7.0
621,16.7
622,19.0
623,16.1
624,14.4
625,18.5
628,8.4
629,3.0
630,8.4
632,4.7
638,15.9
639,17.4
643,4.4
644,21.9
645,3.6
647,22.3
649,5.6
652,2.6
653,3.0
655,13.1
657,12.7
659,8.2
665,16.0
668,13.3
669,11.7
671,1.4
672,23.8
673,13.8
674,16.6
676,9.4
678,8.2
679,15.6
681,6.7
682,11.8
683,7.0
684,6.0
685,9.5
688,15.9
689,5.6
691,20.1
695,7.7
698,10.8
699,22.7
700,19.0
704,22.2
705,7.7
706,21.7
708,8.2
709,21.9
710,3.1
711,15.1
712,18.3
715,25.5
716,11.9
717,13.3
722,6.8
724,22.0
725,15.7
727,1.0
729,10.8
730,6.0
731,13.3
732,0.8
738,5.1
739,21.0
745,13.8
746,11.0
749,5.6
752,22.7
754,1.8
755,5.2
756,21.5
758,15.9
759,13.6
764,15.6
765,4.7
766,24.3
767,13.3
769,5.6
770,13.2
775,23.1
776,21.1
777,14.5
778,8.2
779,9.2
780,4.5
782,14.1
784,5.1
785,7.4
786,14.4
787,13.3
789,4.8
791,17.8
792,8.1
798,8.2
799,3.2
801,18.0
802,10.6
806,21.6
807,15.9
810,5.5
811,8.5
812,5.9
813,21.1
818,10.8
819,20.4
822,1.3
823,13.3
828,8.2
830,22.5
833,9.3
836,17.8
837,10.8
840,4.9
841,7.3
843,9.9
846,2.3
847,10.8
848,12.5
851,19.3
852,24.3
853,15.4
855,10.3
858,24.2
859,21.0
860,25.7
863,5.8
865,21.2
867,3.6
869,3.0
870,15.7
871,6.7
873,9.8
877,20.6
878,15.9
880,6.8
881,23.6
885,1.4
888,5.6
889,15.3
893,15.2
894,0.8
895,1.0
896,1.3
897,15.5
898,10.8
900,8.8
902,5.9
905,0.4
907,23.6
908,5.6
911,21.6
912,17.8
915,8.8
917,8.2
922,2.5
923,2.2
925,15.5
927,13.3
929,17.3
930,7.6
934,7.5
935,16.9
936,10.1
937,8.2
938,19.1
942,13.4
946,13.4
947,18.5
949,16.1
951,24.4
953,21.8
956,16.0
957,10.8
960,11.9
962,9.6
963,4.4
967,10.8
969,23.7
971,9.6
973,20.2
975,12.7
977,23.6
982,16.5
983,14.8
986,19.6
988,5.6
990,3.3
992,13.5
994,2.9
998,15.9
999,15.4
1000,4.7
1001,1.9
1002,19.4
1003,12.0
1004,14.0
1007,17.2
1008,5.6
1009,17.2
1010,16.4
1011,1.9
1017,3.6
1018,41.6
1019,13.7
1021,4.9
1023,15.8
1025,22.4
1026,23.4
1027,12.0
1030,-9.8
1032,24.1
1033,19.5
1035,13.8
1037,23.8
1038,6.8
1039,8.5
1040,2.6
1041,51.9
1042,6.9
1043,24.1
1049,11.1
1051,19.8
1052,31.3
1053,4.2
1062,25.9
1063,25.5
1064,31.3
1067,2.7
1068,4.7
1073,5.7
1075,0.8
1076,18.5
1077,13.7
1079,8.9
1080,11.3
1081,13.9
1086,20.2
1087,10.8
1088,15.0
1091,15.9
1093,25.6
1094,21.7
1097,2.1
1098,46.8
1099,24.6
1101,8.8
1103,0.3
1110,-12.4
1112,21.3
1116,19.2
1121,16.0
1122,41.6
1123,23.8
1125,25.1
1128,18.7
1129,16.4
1131,4.3
1134,28.8
1135,2.7
1136,12.2
1139,1.2
1140,8.2
1143,14.6
1144,11.1
1145,21.0
1146,11.0
1149,5.4
1150,21.4
1153,9.7
1154,16.3
1157,10.8
1159,17.1
1161,19.4
1162,14.0
1164,0.5
1166,18.8
1167,25.0
1168,-2.1
1173,0.3
1174,21.7
1178,8.3
1179,57.1
1181,3.3
1182,10.3
1184,19.4
1185,3.2
1187,15.0
1189,20.5
1190,2.1
1191,23.6
1192,6.5
1194,22.3
1195,3.3
1197,14.9
1198,12.3
1199,3.5
1200,22.5
1201,9.1
1203,39.1
1207,6.3
1210,11.1
1212,14.9
1214,26.2
1215,17.9
1216,8.5
1218,13.9
1219,2.6
1221,13.1
1222,3.2
1223,7.4
1225,18.5
1229,1.6
1230,3.5
1231,5.5
1233,12.0
1234,10.4
1236,18.5
1239,23.6
1241,24.2
1247,20.7
1248,-2.1
1250,13.8
1251,5.3
1252,19.7
1253,3.6
1255,11.4
1257,5.6
1259,9.1
1260,54.5
1261,18.7
1266,10.4
1268,6.4
1269,9.2
1271,28.8
1273,20.8
1275,1.6
1277,0.2
1279,8.7
1280,8.4
1283,39.1
1288,22.7
1289,19.5
1290,25.2
1292,2.3
1294,23.6
1297,16.5
1301,7.6
1305,15.9
1308,17.3
1311,2.2
1315,8.7
1316,33.9
1318,10.0
1319,9.8
1320,15.2
1323,14.8
1325,9.3
1326,20.5
1329,-4.7
1330,3.0
1340,54.5
1341,9.9
1342,6.4
1351,33.9
1357,24.9
1358,15.9
1359,17.2
1361,21.8
1362,33.9
1365,23.7
1367,12.3
1368,4.7
1369,0.7
1371,4.1
1372,15.5
1374,21.0
1375,25.9
1376,16.9
1381,10.7
1383,8.9
1385,13.3
1386,6.5
1387,4.6
1390,2.1
1391,21.0
1392,6.7
1394,21.2
1397,39.1
1401,17.8
1403,2.0
1406,23.2
1409,-7.2
1413,16.2
1414,18.1
1418,24.9
1419,8.4
1420,51.9
1423,23.2
1424,8.7
1425,22.7
1426,16.5
1430,7.8
1431,31.3
1432,21.5
1436,1.1
1438,9.7
1439,3.2
1441,4.9
1442,31.3
1443,14.6
1444,0.0
1445,12.8
1447,5.6
1450,6.9
1451,12.7
1452,5.4
1453,3.5
1454,18.5
1459,22.3
1461,22.7
1462,6.8
1464,6.7
1466,10.8
1468,7.0
1473,3.0
1477,46.8
1478,19.6
1479,6.0
1481,8.2
1484,5.5
1485,0.6
1486,10.7
1488,-12.4
1489,20.7
1493,10.9
1494,10.5
1495,18.1
1501,44.2
1506,22.4
1508,17.1
1509,15.8
1510,25.1
1512,31.3
1513,23.9
1515,14.8
1516,4.5
1518,14.0
1524,21.0
1525,22.3
1528,24.4
1530,13.2
1531,19.9
1532,22.7
1534,19.6
1536,8.2
1537,9.1
1540,22.2
1543,6.2
1544,21.6
1546,8.2
1547,8.5
1548,19.5
1549,11.8
1550,22.0
1554,3.2
1555,6.9
1556,31.3
1561,5.1
1562,16.7
1563,11.0
1564,14.4
1567,-7.2
1570,14.6
1576,3.1
1577,2.7
1579,54.5
1580,10.0
1581,21.6
1583,7.0
1584,18.7
1586,21.6
1587,5.3
1590,24.6
1591,31.3
1592,15.4
1595,19.8
1596,23.4
1597,13.2
1602,36.5
1604,5.3
1605,12.2
1609,16.9
1610,9.3
1613,21.0
1617,13.3
1618,19.0
1620,5.6
1625,13.3
1628,7.4
1629,12.3
1630,0.4
1633,6.5
1635,6.0
1636,41.6
1637,0.2
1638,0.3
1640,23.7
1641,24.5
1643,9.1
1647,-9.8
1651,13.3
1652,16.6
1653,10.9
1654,0.6
1656,14.2
1659,49.3
1660,10.3
1661,9.1
1662,20.5
1666,25.2
1668,24.0
1669,1.8
1670,22.0
1671,33.9
1673,22.4
1675,6.0
1679,2.2
1681,0.9
1682,31.3
1683,17.0
1685,11.7
1687,3.5
1688,7.0
1690,7.3
1691,0.5
1693,15.9
1696,18.4
1697,12.9
1699,15.4
1702,18.3
1703,2.6
1704,10.8
1705,5.6
1706,7.0
1709,25.9
1710,6.2
1711,14.3
1713,2.0
1716,46.8
1720,16.2
1721,18.6
1722,8.0
1723,24.8
1724,24.0
1726,3.7
1728,-9.8
1730,7.2
1731,24.8
1732,0.7
1733,19.0
1735,14.5
1737,3.9
1739,49.3
1740,10.1
1743,6.6
1744,24.3
1746,10.6
1748,4.8
1751,33.9
1753,9.7
1755,25.8
1759,21.9
1760,20.6
1761,4.8
1762,28.8
1764,0.4
1766,21.6
1773,15.9
1774,18.0
1775,17.5
1779,4.5
1784,8.2
1785,2.6
1791,13.9
1793,16.2
1794,0.9
1795,7.9
1796,33.9
1798,13.7
1800,2.6
1801,9.9
1802,1.3
1807,-4.7
1809,0.3
1810,14.2
1811,11.7
1812,17.0
1814,1.5
1816,24.2
1817,20.3
1818,54.5
1819,0.8
1821,8.7
1828,20.6
1829,31.3
1836,10.2
1837,20.9
1838,18.8
1841,33.9
1842,1.8
1843,9.4
1845,10.6
1846,14.1
1847,0.8
1849,8.8
1851,12.4
1852,21.0
1855,8.1
1861,1.6
1862,12.9
1863,3.6
1864,13.3
1865,24.8
1866,14.6
1869,0.3
1872,20.8
1875,39.1
1876,5.6
1877,12.0
1879,4.9
1882,20.2
1884,17.0
1885,4.5
1886,2.4
1887,-7.2
1888,5.3
1892,21.1
1893,14.7
1894,19.3
1898,51.9
1899,12.3
1902,2.0
1904,10.1
1906,3.7
1907,3.1
1908,20.9
1909,31.3
1911,6.6
1913,22.6
1914,18.5
1915,7.3
1918,10.6
1922,31.3
1927,2.9
1929,12.9
1933,18.5
1935,14.8
1936,14.2
1939,25.8
1942,1.8
1944,10.8
1947,21.7
1948,11.8
1952,8.0
1953,10.6
1955,46.8
1958,25.6
1959,3.8
1963,5.9
1967,-9.8
1968,7.8
1972,22.3
1978,49.3
1980,24.2
1981,3.4
1982,9.4
1983,2.4
1985,10.3
1990,33.9
1991,3.7
1992,4.7
1999,23.7
2001,28.8
2002,7.0
2003,2.1
2007,24.8
2008,23.8
2010,17.3
2011,0.4
2013,13.3
2014,7.1
2019,19.3
2022,11.6
2023,21.9
2024,8.2
2026,23.0
2027,9.8
2028,0.6
2029,17.5
2030,10.9
2032,16.3
2033,8.2
2034,33.9
2036,5.8
2038,3.4
2042,10.6
2045,-7.2
2046,16.9
2047,15.7
2049,7.8
2050,14.5
2055,25.2
2058,51.9
2059,17.6
2064,7.0
2066,9.0
2067,18.0
2068,15.2
2069,31.3
2072,9.1
2073,9.9
2074,3.4
2079,2.8
2080,33.9
2082,17.4
2084,8.3
2086,24.2
2087,15.1
2089,21.9
2090,4.4
2091,11.2
2092,21.0
2094,22.9
2095,25.8
2096,18.3
2097,19.0
2100,20.9
2101,23.0
2103,13.3
2104,6.6
2106,14.5
2107,20.6
2108,23.6
2112,13.4
2113,11.0
2114,41.6
2115,5.6
2117,9.9
2118,1.5
2120,0.3
2121,13.7
2122,8.1
2123,6.7
2124,13.3
2125,6.0
2126,-9.8
2129,21.3
2132,14.5
2136,2.3
2137,14.7
2138,51.9
2139,14.9
2140,12.8
2141,16.1
2143,14.7
2144,2.2
2145,7.8
2148,1.3
2149,31.3
2151,14.9
2152,18.9
2153,13.8
2155,21.4
2158,23.2
2160,28.8
2161,25.3
2162,10.2
2163,25.0
2168,16.3
2171,18.5
2172,21.7
2173,20.4
2174,25.5
2177,7.2
2181,7.0
2182,11.4
2183,8.2
2189,11.7
2191,24.7
2194,23.6
2195,13.1
2196,3.0
2200,14.9
2202,13.7
2205,-4.7
2207,8.3
2210,11.2
2213,3.8
2214,22.2
2215,4.4
2216,51.9
2217,25.9
2219,5.2
2221,18.9
2223,17.8
2226,19.3
2228,28.8
2234,22.5
2237,9.3
2239,36.5
2240,8.6
2241,22.8
2244,19.8
2245,0.1
2247,0.5
2249,14.3
2250,21.0
2251,9.8
2253,20.6
2255,19.3
2257,25.8
2258,11.8
2259,15.4
2260,15.9
2261,0.1
2263,13.3
2264,13.5
2267,20.0
2269,14.8
2270,2.3
2274,33.9
2275,6.6
2277,10.6
2278,0.1
2279,15.1
2280,22.3
2282,2.4
2284,14.8
2285,-7.2
2288,19.3
2289,4.0
2290,6.1
2291,17.8
2292,5.2
2294,11.9
2296,51.9
2297,21.6
2300,17.5
2301,24.6
2303,15.0
2304,12.0
2306,18.6
2308,31.3
2313,1.2
2317,0.2
2318,20.7
2319,33.9
2322,8.8
2323,14.1
2324,21.9
2325,2.1
2326,22.2
2327,23.7
2329,11.1
2331,21.0
2334,26.0
2335,10.1
2336,1.1
2338,0.6
2339,15.5
2341,21.9
2342,10.8
2343,15.3
2346,7.2
2347,5.7
2350,11.3
2353,23.1
2354,41.6
2360,18.8
2362,6.4
2364,11.6
2365,-9.8
2366,24.2
2368,13.6
2369,2.2
2370,2.4
2371,15.7
2376,49.3
2377,16.8
2379,18.1
2380,8.6
2381,3.7
2384,14.9
2388,33.9
2392,20.9
2396,3.9
2397,0.5
2398,16.5
2400,31.3
2405,20.9
2408,17.3
2411,18.5
2415,1.8
2416,5.3
2417,19.8
2420,7.2
2422,10.8
2423,10.7
2424,11.6
2428,9.8
2429,14.9
2432,15.5
2434,49.3
2435,7.4
2436,23.2
2438,7.1
2445,-9.8
2446,10.5
2447,11.5
2448,18.6
2450,2.5
2451,14.3
2452,6.9
2453,16.7
2454,0.4
2456,3.6
2457,49.3
2462,20.0
2464,23.7
2465,17.9
2466,4.0
2468,31.3
2469,3.6
2471,5.8
2478,11.6
2480,28.8
2487,24.0
2490,7.5
2491,15.9
2495,0.0
2499,25.0
2501,10.2
2502,5.6
2508,0.9
2509,9.0
2510,23.1
2512,36.5
2513,12.9
2515,17.9
2517,23.5
2520,12.2
2521,20.5
2522,9.3
2524,25.2
2525,-4.7
2526,10.7
2534,4.2
2535,24.2
2536,51.9
2544,9.0
2545,11.8
2547,31.3
2549,0.2
2556,2.3
2557,16.1
2558,33.9
2559,25.8
2561,14.6
2565,3.6
2570,18.5
2572,18.2
2575,2.8
2578,3.0
2579,10.9
2580,1.8
2581,10.8
2583,4.6
2584,16.4
2585,8.5
2588,14.7
2589,7.5
2592,22.5
2593,41.6
2595,10.3
2597,23.0
2599,1.6
2605,-9.8
2606,15.6
2607,5.7
2609,6.9
2611,10.6
2612,1.4
2616,51.9
2618,3.3
2623,6.3
2627,31.3
2628,3.7
2631,2.3
2632,2.3
2634,22.9
2636,23.6
2637,5.2
2638,31.3
2639,23.5
2641,14.8
2642,25.7
2643,16.3
2646,1.8
2649,2.3
2650,18.5
2651,0.8
2653,23.5
2654,24.6
2656,18.6
2658,0.3
2659,19.1
2661,11.3
2662,8.2
2664,8.5
2667,24.8
2669,20.1
2672,28.8
2676,19.0
2677,25.3
2679,6.7
2680,9.9
2681,1.2
2683,-7.2
2685,22.8
2686,17.0
2690,23.2
2692,25.4
2693,10.9
2695,51.9
2698,5.7
2700,16.5
2703,10.0
2704,25.1
2705,2.8
2706,28.8
2707,2.3
2708,6.2
2709,9.5
2712,18.7
2716,20.8
2717,33.9
2718,25.6
2722,25.1
2723,8.0
2725,22.0
2728,6.7
2729,21.0
2731,9.1
2732,25.0
2733,2.2
2734,26.0
2735,13.9
2738,4.2
2740,8.3
2741,13.3
2742,2.6
2743,17.7
2744,21.5
2747,17.4
2750,4.8
2752,36.5
2753,11.8
2760,0.1
2761,10.2
2763,-7.2
2764,10.9
2765,21.0
2769,24.3
2770,24.2
2771,20.4
2772,24.8
2773,22.3
2775,54.5
2776,7.2
2777,2.0
2781,24.1
2782,22.9
2786,23.0
2787,31.3
2794,10.6
2798,33.9
2799,14.2
2801,13.3
2802,22.0
2803,20.5
2804,7.6
2806,12.1
2808,2.1
2809,18.5
2810,4.2
2813,1.6
2816,5.4
2817,0.4
2818,10.7
2821,10.8
2822,24.2
2825,21.0
2826,7.9
2828,14.7
2830,25.8
2832,44.2
2833,25.3
2835,3.3
2836,8.1
2837,7.1
2840,5.4
2843,-12.4
2846,1.4
2847,18.9
2849,22.8
2851,19.6
2852,14.2
2853,24.6
2854,3.9
2856,44.2
2857,8.7
2859,16.6
2861,21.9
2864,15.7
2865,19.5
2868,28.8
2872,4.3
2875,6.7
2876,20.4
2879,21.0
2881,0.4
2882,10.4
2883,18.0
2884,20.8
2885,16.7
2886,2.3
2887,3.2
2889,17.4
2890,8.2
2891,15.9
2895,20.1
2898,14.2
2899,2.1
2900,8.2
2903,3.8
2908,6.5
2910,22.3
2911,31.3
2913,11.2
2914,8.0
2918,8.8
2921,15.3
2923,-4.7
2924,7.5
2925,22.7
2926,13.1
2927,4.6
2931,1.7
2933,13.4
2934,54.5
2935,15.3
2936,10.9
2938,0.6
2940,10.5
2941,6.8
2944,20.1
2946,31.3
2947,9.0
2950,2.6
2951,2.6
2956,1.1
2957,33.9
2958,2.4
2962,21.2
2964,9.6
2967,5.1
2968,21.0
2969,19.5
2970,2.1
2971,18.9
2972,6.4
2973,0.8
2975,18.4
2976,1.3
2978,15.9
2979,13.3
2980,24.7
2992,39.1
3003,-9.8
3008,11.0
3009,21.4
3011,6.2
3012,3.7
3013,18.6
3014,51.9
3017,16.7
3019,13.1
3021,1.4
3022,1.5
3023,4.2
3025,31.3
3026,26.0
3027,5.2
3028,15.5
3029,14.3
3030,15.4
3031,15.7
3033,24.9
3034,2.1
3035,21.0
3036,0.8
3037,33.9
3038,0.3
3040,7.7
3042,24.4
3045,21.1
3048,18.5
3049,6.3
3051,19.5
3052,12.9
3054,2.6
3056,21.4
3057,19.8
3058,14.4
3059,1.2
3060,8.2
3061,19.5
3063,23.0
3066,19.7
3067,23.0
3070,18.5
3071,4.0
3074,25.7
3075,9.2
3077,18.6
3082,-2.1
3083,25.4
3086,25.8
3088,18.8
3092,6.7
3093,54.5
3096,15.1
3099,7.4
3100,25.4
3103,12.1
3104,28.8
3108,13.6
3110,22.6
3115,24.0
3116,36.5
3118,16.3
3119,2.0
3120,24.9
3126,8.9
3128,23.6
3130,8.8
3132,4.3
3134,3.1
3135,12.3
3139,15.9
3140,4.3
3141,13.7
3142,22.5
3143,11.5
3144,19.4
3148,12.3
3149,20.3
3150,28.8
3154,15.6
3156,1.5
3157,5.9
3159,2.9
3161,10.8
3162,-7.2
3163,11.1
3164,14.4
3165,13.3
3166,20.3
3167,12.2
3168,21.7
3169,3.4
3170,5.3
3171,15.5
3172,19.7
3173,54.5
3175,16.5
3176,10.0
3177,12.5
3182,20.1
3183,13.9
3184,28.8
3185,12.6
3187,21.8
3188,1.0
3190,22.8
3192,14.6
3193,2.8
3195,23.5
3196,33.9
3198,4.7
3199,7.5
3203,0.4
3205,18.8
3208,21.0
3209,14.3
3211,20.4
3215,12.1
3216,25.2
3217,0.8
3218,4.4
3219,13.3
3220,6.7
3225,22.6
3226,5.0
3227,20.0
3230,39.1
3231,5.5
3233,10.3
3234,4.8
3236,25.2
3237,3.2
3240,15.2
3241,-7.2
3242,20.5
3244,10.0
3245,17.4
3246,9.9
3248,9.2
3252,11.9
3254,49.3
3255,10.4
3260,12.3
3261,10.1
3265,31.3
3266,11.5
3268,17.7
3270,1.7
3271,16.1
3272,3.1
3274,15.0
3275,25.5
3276,31.3
3278,24.2
3280,18.1
3282,24.4
3283,24.5
3284,2.3
3285,1.4
3286,3.0
3287,10.6
3288,15.9
3289,7.8
3290,3.8
3295,1.9
3296,12.5
3297,0.3
3298,5.1
3299,8.2
3301,1.2
3302,24.5
3305,21.1
3306,13.6
3307,6.7
3309,21.0
3310,20.3
3311,7.3
3312,5.5
3313,19.4
3314,2.9
3317,14.0
3319,5.8
3320,3.6
3321,-4.7
3323,14.1
3324,7.6
3325,1.7
3330,0.6
3333,51.9
3334,7.8
3335,2.8
3337,11.1
3339,21.0
3340,1.9
3344,28.8
3351,0.4
3355,39.1
3357,22.3
3361,1.2
3365,2.6
3366,23.6
3373,23.7
3378,13.3
3381,9.8
3382,18.7
3384,19.9
3388,18.6
3389,25.7
3390,31.3
3394,18.2
3395,10.5
3396,20.6
3400,6.0
3401,-7.2
3402,22.6
3404,16.0
3405,8.6
3407,8.1
3410,2.4
3411,0.1
3412,54.5
3414,0.4
3418,3.1
3420,19.8
3423,23.7
3424,31.3
3428,10.9
3432,20.0
3435,33.9
3436,4.0
3437,13.1
3442,21.0
3446,21.0
3447,20.5
3448,22.2
3449,3.2
3450,12.3
3451,14.3
3452,8.3
3453,19.9
3454,22.5
3456,3.6
3459,10.8
3463,20.0
3465,23.6
3466,23.6
3467,8.6
3468,2.6
3469,6.1
3470,41.6
3471,9.7
3472,14.6
3475,13.2
3479,8.9
3481,-9.8
3482,6.7
3486,9.8
3488,24.4
3489,1.2
3492,51.9
3493,17.5
3494,15.6
3498,4.2
3499,19.1
3504,31.3
3506,0.5
3508,7.7
3510,7.6
3511,19.7
3515,31.3
3516,21.9
3517,9.6
3518,7.3
3520,20.1
3527,18.5
3529,12.2
3530,1.0
3534,1.7
3535,2.6
3537,12.0
3538,8.2
3541,1.6
3543,13.0
3544,3.2
3546,10.0
3548,6.9
3549,23.6
3551,17.0
3552,13.8
3554,16.7
3556,6.0
3560,-4.7
3562,17.3
3563,1.6
3565,2.5
3567,8.3
3571,54.5
3576,25.4
3578,13.8
3581,20.2
3582,26.2
3583,23.1
3586,7.7
3587,1.9
3588,7.8
3595,36.5
3596,22.0
3597,18.3
3602,17.5
3603,10.0
3604,4.2
3605,4.5
3606,23.6
3610,6.7
3612,19.5
3614,17.8
3617,13.3
3618,10.5
3619,3.8
3621,11.7
3623,14.4
3628,21.7
3629,33.9
3633,25.9
3634,11.7
3637,11.1
3640,-4.7
3643,3.5
3645,11.6
3649,23.2
3651,54.5
3652,17.8
3653,3.7
3654,24.6
3655,22.4
3656,18.4
3658,24.5
3663,31.3
3664,5.4
3665,14.3
3667,23.9
3668,12.4
3669,18.0
3670,9.3
3673,3.3
3675,33.9
3676,23.2
3678,11.2
3679,13.1
3681,12.4
3683,1.4
3685,23.3
3686,21.0
3690,18.0
3695,20.7
3697,10.8
3699,13.4
3705,24.3
3706,25.8
3708,41.6
3710,15.4
3712,6.1
3715,1.5
3716,8.7
3718,9.6
3721,-7.2
3722,6.1
3723,0.2
3725,20.5
3726,17.9
3728,24.5
3731,15.7
3732,51.9
3738,3.8
3740,5.2
3742,10.9
3743,31.3
3746,2.2
3747,23.5
3755,31.3
3756,15.5
3757,11.7
3759,24.7
3760,20.2
3762,8.2
3763,17.7
3764,19.2
3765,10.7
3766,18.5
3767,1.5
3769,12.3
3770,15.5
3771,12.0
3774,18.5
3775,9.0
3777,10.8
3782,4.1
3783,22.1
3785,15.3
3786,22.4
3787,6.3
3788,20.3
3789,46.8
3790,6.8
3791,22.0
3792,12.4
3794,22.4
3796,19.5
3799,3.4
3801,-12.4
3804,18.9
3810,4.7
3811,18.4
3813,41.6
3816,4.6
3817,16.7
3818,12.5
3819,2.8
3820,2.0
3823,12.1
3824,28.8
3826,9.6
3829,23.1
3830,11.1
3832,3.1
3833,12.8
3834,11.0
3835,21.0
3837,1.5
3838,7.7
3839,16.0
3842,14.1
3843,3.0
3845,7.0
3846,14.4
3847,8.2
3851,15.0
3852,6.0
3856,9.7
3858,8.2
3862,24.4
3863,21.7
3864,24.8
3866,0.2
3867,15.2
3868,33.9
3872,21.0
3876,4.9
3878,23.4
3879,-7.2
3882,19.4
3885,25.9
3886,25.6
3887,20.7
3891,51.9
3892,0.4
3893,25.9
3898,23.2
3899,4.8
3901,10.3
3902,31.3
3905,12.9
3906,2.0
3909,11.0
3910,0.7
3912,1.9
3913,33.9
3914,12.1
3915,23.1
3919,0.5
3920,5.6
3923,25.9
3924,10.4
3926,21.0
3927,5.0
3928,23.1
3931,1.0
3933,8.9
3935,0.3
3936,0.9
3937,10.8
3938,15.2
3939,5.4
3941,10.7
3943,11.9
3945,6.6
3947,7.3
3948,41.6
3949,15.0
3950,22.2
3955,22.4
3956,11.5
3958,14.6
3959,-9.8
3961,20.3
3962,11.3
3965,6.3
3966,14.4
3968,14.0
3971,49.3
3974,24.9
3976,0.8
3980,10.3
3982,31.3
3983,24.2
3986,6.8
3993,4.1
3994,31.3
3995,9.1
3997,18.9
3999,21.3
4001,14.3
4003,2.8
4005,18.5
4010,15.7
4017,8.2
4018,19.2
4019,5.8
4024,12.0
4027,23.6
4029,4.1
4030,19.7
4033,4.7
4034,22.4
4036,4.2
4037,14.9
4038,-4.7
4039,21.4
4041,5.8
4042,17.0
4043,7.8
4045,20.1
4046,21.2
4047,1.5
4049,54.5
4052,21.6
4055,18.7
4056,11.8
4058,16.8
4059,21.4
4062,31.3
4067,11.8
4071,4.3
4073,36.5
4074,16.8
4075,9.3
4076,5.3
4079,12.7
4080,16.2
4084,23.6
4087,16.3
4090,9.7
4093,11.8
4094,0.0
4096,15.9
4099,22.3
4104,11.3
4106,21.2
4107,33.9
4108,10.9
4109,12.9
4117,9.4
4119,-7.2
4120,10.7
4124,22.6
4127,4.4
4130,51.9
4132,14.2
4133,17.3
4134,24.0
4135,14.7
4138,21.9
4141,4.5
4142,31.3
4144,1.2
4145,4.8
4148,2.0
4151,9.7
4152,21.5
4153,33.9
4155,7.8
4157,21.2
4160,16.1
4161,7.3
4164,21.0
4166,14.1
4168,23.8
4173,15.2
4175,10.8
4180,4.5
4182,4.1
4183,24.9
4187,6.4
4188,41.6
4199,-9.8
4200,4.5
4201,24.9
4208,6.4
4210,51.9
4211,1.7
4214,4.0
4217,9.7
4221,31.3
4222,17.0
4223,8.6
4224,22.2
4229,1.5
4231,16.1
4232,19.0
4233,31.3
4234,25.7
4240,7.4
4241,20.7
4244,18.5
4246,17.8
4250,0.9
4252,22.2
4253,15.1
4254,21.1
4256,10.8
4258,21.0
4259,7.4
4261,20.4
4268,46.8
4270,16.2
4271,19.6
4275,6.4
4277,22.8
4278,7.7
4279,-12.4
4280,6.4
4282,23.9
4283,15.4
4285,3.4
4286,21.1
4287,0.7
4291,41.6
4296,14.7
4299,19.3
4300,26.0
4301,6.0
4302,28.8
4303,3.3
4305,25.1
4306,7.0
4307,7.0
4310,4.2
4313,15.1
4314,21.0
4315,11.6
4316,8.7
4322,15.6
4323,8.1
4324,22.7
4325,15.6
4326,5.6
4327,3.5
4328,1.5
4329,3.7
4330,25.1
4331,10.4
4333,2.0
4334,12.0
4335,15.3
4336,5.6
4339,7.2
4340,1.7
4341,0.4
4343,4.7
4346,36.5
4348,20.1
4349,7.0
4350,2.4
4351,5.3
4353,11.7
4358,-7.2
4360,16.2
4363,20.7
4364,15.2
4365,4.7
4366,11.6
4368,18.3
4369,51.9
4371,2.6
4372,9.7
4375,18.8
4376,3.3
4378,11.0
4380,31.3
4381,24.7
4382,12.3
4387,3.9
4388,22.2
4389,16.4
4390,10.4
4392,33.9
4393,10.0
4394,23.3
4396,3.7
4397,0.7
4399,16.1
4401,3.1
4402,21.0
4403,5.9
4404,21.0
4407,0.1
4409,15.4
4410,17.2
4415,10.8
4416,22.9
4422,23.5
4426,44.2
4428,8.2
4432,3.6
4433,1.6
4436,4.3
4437,2.8
4438,-9.8
4440,9.2
4441,6.0
4447,8.6
4448,0.3
4449,49.3
4451,2.4
4454,5.5
4457,20.1
4461,31.3
4465,2.6
4466,16.6
4469,7.8
4472,31.3
4475,17.3
4477,1.3
4483,22.1
4484,15.9
4486,12.6
4488,15.4
4492,16.6
4493,6.8
4494,15.7
4495,8.2
4498,3.3
4499,18.0
4502,6.5
4503,3.4
4504,25.2
4505,28.8
4515,13.0
4517,-7.2
4518,6.1
4522,21.3
4529,51.9
4530,16.3
4531,17.6
4532,18.2
4533,14.0
4534,2.8
4535,4.7
4536,24.1
4540,31.3
4541,0.2
4542,20.1
4543,12.6
4544,1.1
4546,12.8
4547,9.9
4548,14.9
4549,25.0
4551,36.5
4554,22.9
4555,19.7
4559,15.3
4561,25.6
4562,23.6
4563,11.2
4564,2.5
4566,22.7
4567,24.5
4569,4.3
4570,12.1
4571,14.1
4572,7.5
4574,13.3
4576,11.3
4578,1.5
4580,13.5
4581,16.6
4582,20.4
4583,9.3
4584,13.7
4586,36.5
4587,5.0
4588,19.2
4589,4.5
4591,20.1
4593,18.2
4594,18.5
4597,-7.2
4598,12.4
4599,10.5
4601,4.5
4602,19.2
4603,6.9
4606,12.5
4608,17.1
4609,51.9
4610,20.3
4612,9.4
4613,24.0
4615,22.4
4616,16.6
4619,8.3
4620,31.3
4621,9.7
4622,20.4
4624,10.2
4629,14.4
4630,4.5
4631,33.9
4635,22.6
4637,0.2
4642,21.0
4645,2.8
4649,4.8
4652,19.0
4655,10.8
4656,17.3
4657,16.5
4661,4.4
4662,23.0
4664,7.8
4665,4.5
4666,44.2
4667,10.7
4668,15.3
4669,6.6
4671,4.7
4672,0.3
4673,22.1
4676,4.4
4677,-9.8
4679,4.2
4681,24.0
4682,2.3
4684,14.8
4685,4.6
4686,0.3
4687,0.3
4688,49.3
4690,18.3
4691,10.9
4692,4.4
4694,18.0
4698,1.0
4699,10.7
4700,33.9
4702,0.0
4703,23.9
4710,23.2
4711,31.3
4712,21.5
4713,1.4
4714,15.1
4715,11.2
4716,4.8
4717,12.4
4719,7.4
4722,1.0
4723,15.9
4724,18.6
4726,16.0
4727,1.3
4728,19.8
4730,14.9
4733,6.4
4734,8.2
4735,19.8
4739,14.0
4743,4.6
4744,4.2
4745,28.8
4746,21.7
4747,2.4
4750,24.7
4751,5.8
4753,22.2
4755,18.1
4756,-4.7
4757,10.9
4759,0.6
4761,13.8
4763,12.0
4764,17.1
4766,8.3
4767,54.5
4769,7.3
4770,2.9
4772,17.8
4775,10.9
4776,21.9
4777,12.3
4778,11.3
4779,31.3
4780,3.4
4785,7.3
4786,18.4
4788,18.5
4791,36.5
4792,9.2
4798,0.4
4801,8.5
4802,21.0
4805,12.0
4810,5.2
4813,15.9
4814,11.0
4815,11.6
4816,11.1
4817,3.8
4818,5.8
4819,2.9
4820,25.6
4821,23.0
4825,36.5
4827,20.4
4828,3.0
4829,16.7
4831,20.6
4833,6.7
4834,18.5
4835,25.1
4836,-7.2
4838,7.8
4839,24.4
4842,18.6
4843,10.1
4844,7.2
4845,21.2
4846,3.0
4847,51.9
4848,19.5
4850,12.0
4851,12.1
4853,17.1
4854,10.1
4856,9.4
4857,24.7
4858,23.3
4859,31.3
4860,19.6
4861,11.0
4863,18.0
4870,20.5
4871,31.3
4872,15.7
4873,4.7
4874,25.3
4875,21.3
4879,22.9
4881,21.0
4882,18.5
4883,12.3
4885,22.3
4888,2.6
4890,14.3
4892,0.5
4893,10.8
4894,2.3
4896,22.0
4898,16.1
4901,14.7
4902,4.5
4903,18.1
4904,44.2
4906,1.1
4909,4.4
4916,-9.8
4917,14.6
4918,11.6
4919,6.9
4921,7.0
4922,20.0
4926,4.4
4928,49.3
4930,7.0
4931,11.1
4934,8.7
4935,5.1
4936,21.4
4938,14.9
4939,33.9
4943,11.7
4945,19.8
4948,0.3
4949,9.3
4951,31.3
4952,7.6
4954,13.9
4957,19.4
4959,9.8
4960,19.8
4962,15.9
4963,10.9
4966,14.8
4968,7.3
4969,12.2
4972,5.1
4973,8.2
4975,11.3
4979,18.4
4981,1.6
4984,28.8
4985,0.3
4987,24.9
4989,15.5
4992,5.9
4994,22.7
4995,16.3
4996,-4.7
4997,8.1
5005,19.3
5006,7.0
5007,51.9
5008,2.4
5010,18.9
5013,6.1
5017,20.3
5018,28.8
5019,15.7
5020,21.7
5021,0.8
5029,33.9
5035,20.3
5036,12.4
5038,2.0
5040,17.5
5041,23.6
5045,1.3
5047,12.7
5048,16.8
5053,13.3
5057,10.7
5059,2.4
5064,39.1
5069,5.8
5075,-7.2
5076,13.1
5077,23.6
5078,6.8
5079,5.5
5080,1.3
5081,18.9
5082,2.1
5086,19.6
5087,51.9
5088,21.9
5090,25.0
5093,9.1
5098,31.3
5100,10.8
5101,23.3
5102,22.1
5104,3.4
5108,22.8
5109,33.9
5111,19.6
5112,10.5
5113,24.0
5115,23.4
5116,20.3
5120,9.6
5121,7.7
5122,21.0
5124,18.0
5125,13.5
5130,21.2
5133,13.3
5134,19.4
5137,14.9
5138,24.4
5142,3.9
5144,44.2
5146,12.4
5149,18.1
5150,15.0
5152,2.9
5155,-9.8
5167,49.3
5168,20.2
5169,8.0
5170,1.1
5174,11.8
5178,33.9
5181,21.9
5188,14.6
5190,31.3
5191,0.5
5195,25.4
5196,9.4
5198,19.6
5201,15.9
5202,11.1
5205,8.8
5207,0.9
5208,18.4
5213,10.8
5219,11.5
5220,23.8
5222,15.4
5224,49.3
5228,6.4
5231,0.7
5232,12.6
5234,11.4
5235,-7.2
5236,5.5
5237,21.3
5239,12.2
5240,20.6
5242,23.5
5246,46.8
5247,14.2
5249,3.5
5251,19.1
5252,10.9
5253,23.1
5255,12.4
5256,14.9
5258,7.3
5259,31.3
5262,2.1
5263,0.4
5264,13.3
5266,13.2
5267,13.2
5268,8.6
5270,26.2
5271,13.1
5275,8.6
5276,15.5
5278,21.5
5280,10.1
5281,13.3
5283,19.5
5284,14.9
5293,5.6
5295,5.3
5296,17.7
5297,4.4
5300,13.4
5301,16.1
5302,22.0
5303,39.1
5306,19.7
5314,-7.2
5316,25.7
5317,0.6
5318,21.9
5319,20.8
5320,16.6
5322,22.1
5324,21.9
5326,51.9
5327,16.6
5329,14.8
5331,3.6
5334,3.1
5335,11.8
5336,6.8
5338,31.3
5341,22.3
5342,11.0
5343,18.2
5348,2.0
5349,33.9
5350,22.5
5351,17.8
5354,11.5
5360,18.5
5361,10.6
5362,5.4
5363,21.8
5365,19.8
5366,10.5
5367,4.2
5368,24.2
5369,17.6
5370,22.9
5371,10.8
5374,12.3
5375,24.5
5381,15.1
5382,4.6
5384,44.2
5386,21.8
5389,21.8
5392,2.1
5395,-9.8
5396,25.9
5397,21.2
5399,24.2
5400,12.8
5404,14.6
5406,51.9
5408,10.9
5409,8.4
5411,23.0
5412,5.3
5413,20.9
5416,12.1
5417,31.3
5418,11.9
5419,23.8
5421,0.2
5426,11.0
5429,28.8
5430,21.6
5432,15.9
5434,4.5
5436,15.3
5437,4.1
5438,5.4
5440,18.5
5441,18.1
5446,13.9
5448,24.8
5452,8.2
5455,6.1
5460,23.0
5461,17.5
5463,28.8
5465,6.2
5467,8.5
5472,17.9
5474,-4.7
5475,16.6
5476,18.0
5480,2.9
5481,9.3
5482,14.7
5485,51.9
5488,25.4
5490,11.7
5493,25.8
5496,28.8
5497,15.6
5499,1.7
5500,8.8
5501,14.0
5503,4.9
5506,9.6
5507,25.9
5508,36.5
5509,13.8
5512,24.9
5514,7.1
5515,14.6
5516,13.3
5517,20.2
5518,17.1
5520,21.0
5524,6.4
5527,1.4
5528,3.8
5530,22.7
5531,13.3
5532,17.6
5533,19.2
5534,12.1
5538,14.0
5539,10.8
5540,13.1
5542,39.1
5543,24.1
5544,10.0
5547,9.8
5548,16.7
5550,17.2
5551,17.6
5554,-9.8
5555,8.9
5556,16.8
5557,15.1
5558,19.6
5559,23.5
5562,1.3
5564,9.9
5565,51.9
5567,22.1
5571,22.9
5573,15.1
5574,18.8
5576,31.3
5578,3.7
5580,22.1
5584,13.3
5586,8.5
5588,31.3
5589,5.2
5590,11.7
5591,1.2
5594,12.4
5600,18.5
5601,24.4
5605,25.4
5606,10.7
5608,7.8
5610,11.6
5611,10.8
5613,1.2
5614,0.8
5616,16.4
5619,0.8
5622,44.2
5623,16.7
5624,22.5
5625,22.3
5629,11.8
5630,10.5
5631,13.7
5632,15.6
5634,-9.8
5635,10.8
5636,4.5
5638,22.6
5639,7.7
5640,7.8
5641,13.7
5645,49.3
5650,19.6
5653,0.8
5654,22.1
5655,11.9
5656,13.4
5657,33.9
5659,17.2
5661,25.1
5663,24.7
5666,4.8
5667,16.8
5668,28.8
5671,16.4
5672,2.3
5675,10.9
5678,0.1
5679,24.4
5680,18.5
5681,17.8
5682,18.7
5684,23.0
5685,10.0
5686,2.9
5690,20.8
5691,8.2
5692,10.6
5693,3.4
5694,14.5
5695,13.8
5697,21.9
5698,6.2
5700,3.1
5701,31.3
5704,1.5
5706,19.7
5707,4.6
5709,24.0
5710,5.1
5711,23.4
5712,-4.7
5713,6.9
5715,7.0
5716,8.5
5723,15.5
5724,16.4
5725,54.5
5726,4.8
5728,6.6
5729,26.0
5730,17.7
5735,22.8
5736,31.3
5737,23.4
5740,2.1
5743,0.3
5744,19.4
5745,21.1
5746,24.2
5747,36.5
5749,3.7
5751,4.2
5753,22.8
5754,5.6
5758,21.0
5764,15.5
5765,15.2
5766,24.4
5768,4.1
5770,13.3
5771,5.8
5772,9.5
5773,0.2
5775,14.3
5776,6.9
5779,11.7
5780,21.4
5781,39.1
5784,24.1
5785,1.5
5786,15.9
5790,16.9
5792,11.7
5793,-9.8
5795,3.4
5799,19.6
5800,6.3
5804,8.3
5805,51.9
5807,22.0
5809,23.2
5810,8.0
5812,9.2
5814,5.8
5816,31.3
5818,19.9
5819,6.7
5820,19.6
5822,18.2
5824,21.2
5826,20.5
5827,33.9
5830,20.3
5834,7.2
5836,0.4
5838,18.5
5839,6.3
5843,10.4
5844,18.2
5847,21.9
5848,23.4
5850,14.2
5851,10.8
5853,3.1
5855,22.7
5856,14.8
5858,26.0
5859,6.5
5861,9.6
5862,44.2
5866,24.4
5869,10.4
5870,4.0
5873,-9.8
5876,5.1
5877,3.3
5879,11.1
5880,9.9
5881,21.0
5883,15.7
5884,49.3
5889,16.2
5890,13.8
5893,7.4
5894,1.9
5895,9.7
5896,33.9
5897,8.1
5898,21.2
5902,25.2
5904,22.2
5906,17.3
5907,28.8
5908,4.5
5910,19.5
5911,24.7
5912,4.8
5914,13.6
5918,4.8
5919,15.9
5923,25.0
5925,14.7
5926,3.3
5928,10.0
5929,10.4
5931,8.2
5934,25.1
5936,24.7
5939,14.8
5941,31.3
5942,10.6
5946,4.9
5948,9.0
5950,15.9
5952,-7.2
5956,15.3
5957,23.1
5958,15.6
5959,21.3
5960,15.3
5961,19.2
5963,51.9
5969,20.6
5970,19.1
5974,6.4
5975,28.8
5981,8.3
5982,14.4
5987,33.9
5989,12.4
5990,25.3
5991,14.5
5994,12.1
5998,23.6
6000,12.9
6001,15.9
6002,9.7
6003,20.3
6004,0.3
6005,3.2
6007,6.6
6009,13.3
6011,4.5
6015,13.6
6018,22.5
6019,6.5
6020,15.8
6021,39.1
6024,6.4
6026,8.5
6027,15.7
6029,19.4
6032,-9.8
6033,25.4
6036,15.6
6037,4.0
6040,3.3
6042,0.3
6043,51.9
6046,0.1
6047,1.7
6049,7.7
6050,17.0
6051,17.1
6052,12.1
6053,10.4
6055,31.3
6056,21.8
6057,18.8
6058,24.5
6059,24.9
6060,7.9
6064,17.0
6067,33.9
6073,5.9
6075,0.9
6077,7.4
6078,18.5
6079,24.3
6081,1.8
6084,7.8
6086,0.4
6087,13.4
6088,14.9
6089,10.8
6091,8.4
6097,23.4
6098,21.9
6099,12.2
6100,46.8
6102,0.9
6103,15.9
6105,11.3
6107,8.5
6108,17.5
6109,7.7
6111,19.3
6112,-9.8
6113,17.3
6115,18.1
6116,7.7
6117,0.3
6120,16.1
6121,18.4
6122,3.9
6123,13.5
6124,49.3
6125,6.1
6126,21.6
6127,0.8
6128,24.2
6130,25.8
6132,11.1
6135,33.9
6136,24.5
6138,2.7
6140,24.5
6143,14.5
6144,16.1
6147,31.3
6149,3.3
6150,24.4
6153,24.4
6154,21.5
6158,15.9
6160,14.2
6163,25.3
6165,21.2
6169,8.2
6170,16.9
6171,22.3
6174,10.5
6175,3.4
6177,0.1
6179,31.3
6180,12.3
6181,9.5
6185,16.3
6186,0.1
6188,16.0
6189,10.6
6192,-7.2
6199,24.3
6200,11.2
6203,51.9
6205,8.7
6206,12.5
6207,19.7
6211,16.9
6212,19.0
6214,31.3
6215,25.1
6222,7.5
6225,33.9
6226,22.0
6227,8.1
6229,20.7
6231,8.0
6233,6.7
6235,18.5
6236,8.3
6237,21.0
6238,25.1
6243,17.1
6246,12.5
6248,16.1
6249,13.3
6252,22.1
6255,2.5
6256,1.3
6258,12.7
6259,5.1
6260,39.1
6261,4.4
6266,12.9
6269,25.2
6272,-9.8
6273,1.6
6276,10.9
6277,19.7
6280,19.8
6281,4.7
6282,1.2
6283,51.9
6287,18.1
6288,21.7
6289,19.3
6292,15.2
6294,31.3
6298,18.8
6305,31.3
6308,15.4
6313,13.4
6315,5.0
6316,12.0
6318,18.5
6319,4.9
6320,19.0
6321,21.1
6322,22.1
6323,8.1
6324,22.0
6327,7.5
6329,10.8
6330,15.8
6340,46.8
6343,20.3
6344,12.8
6345,0.7
6347,19.5
6348,13.9
6349,22.5
6350,20.1
6351,-12.4
6352,8.2
6353,1.7
6354,25.2
6357,0.1
6359,21.8
6364,41.6
6370,10.8
6372,2.0
6373,19.7
6374,1.9
6375,31.3
6380,12.3
6381,0.9
6383,23.9
6387,21.0
6390,14.5
6392,20.3
6393,9.3
6394,12.6
6398,8.2
6401,6.2
6402,17.1
6405,22.5
6409,8.2
6412,15.4
6413,2.0
6414,9.1
6416,5.0
6418,6.7
6419,31.3
6421,15.7
6422,1.9
6424,20.7
6427,13.2
6428,9.0
6430,-4.7
6431,14.2
6432,2.1
6434,19.2
6435,2.5
6436,23.3
6437,11.7
6438,7.1
6441,54.5
6442,20.8
6446,10.2
6447,9.5
6448,15.7
6449,3.0
6451,10.4
6453,16.8
6454,31.3
6455,21.4
6457,0.1
6458,7.4
6459,15.3
6460,23.2
6461,20.8
6465,36.5
6466,18.6
6467,8.3
6475,8.1
6476,21.0
6482,14.0
6484,25.6
6488,13.3
6490,25.9
6491,6.5
6492,24.0
6493,18.5
6495,3.9
6496,2.1
6498,14.0
6499,39.1
6500,17.7
6501,15.3
6502,10.2
6503,4.2
6504,24.4
6505,19.0
6507,6.2
6508,9.7
6510,-7.2
6514,21.3
6515,14.4
6516,17.8
6517,7.2
6518,25.3
6519,19.3
6522,51.9
6525,17.2
6526,13.9
6527,0.3
6528,10.2
6533,4.1
6534,33.9
6539,18.1
6540,2.4
6542,23.4
6543,7.3
6545,31.3
6546,11.4
6547,15.6
6548,22.5
6550,18.8
6551,8.9
6553,10.9
6554,5.2
6555,24.2
6556,18.5
6557,15.7
6560,12.2
6564,6.9
6565,0.5
6567,8.2
6568,23.6
6571,23.4
6572,19.8
6573,21.9
6574,12.7
6575,13.1
6578,21.0
6582,25.1
6584,14.5
6586,25.8
6587,1.1
6588,4.4
6589,25.5
6590,-2.1
6592,18.6
6594,15.6
6595,16.0
6598,14.1
6600,18.8
6601,54.5
6606,18.0
6608,23.0
6609,7.3
6612,28.8
6613,5.8
6615,2.4
6616,17.7
6617,23.7
6620,21.1
6621,9.8
6622,2.5
6623,14.0
6624,36.5
6626,14.4
6627,14.6
6628,8.9
6629,20.8
6632,6.3
6633,17.1
6634,2.9
6635,23.6
6639,17.1
6640,0.8
6646,13.3
6647,25.8
6648,20.8
6649,17.5
6650,4.1
6651,0.5
6652,5.9
6657,23.5
6659,31.3
6660,17.6
6661,12.4
6662,24.8
6663,9.4
6664,7.2
6665,12.5
6669,18.2
6670,-7.2
6673,20.5
6679,22.5
6681,51.9
6684,17.7
6686,17.7
6689,3.6
6691,16.7
6692,28.8
6696,5.1
6697,11.5
6698,1.7
6699,10.2
6702,1.9
6703,16.1
6704,33.9
6705,8.8
6706,6.3
6707,7.1
6709,22.8
6711,12.6
6712,10.1
6715,10.6
6716,21.0
6717,22.7
6718,4.7
6719,8.5
6720,19.7
6721,9.8
6722,0.1
6725,6.0
6726,0.4
6727,13.3
6728,19.5
6730,1.9
6732,13.9
6734,0.4
6736,9.7
6737,21.1
6738,41.6
6739,23.6
6741,0.2
6743,23.6
6747,13.4
6750,-9.8
6752,1.3
6753,24.1
6760,1.3
6761,51.9
6763,6.1
6767,10.3
6770,6.2
6772,31.3
6774,21.6
6776,9.6
6781,3.4
6784,13.8
6785,33.9
6787,16.7
6791,16.8
6793,11.2
6794,21.8
6795,16.2
6796,18.5
6797,15.3
6802,0.3
6807,10.8
6809,5.6
6810,1.1
6811,3.1
6813,4.3
6814,20.9
6815,6.2
6818,46.8
6825,0.7
6826,9.5
6827,0.6
6830,-9.8
6831,6.8
6834,4.1
6837,5.2
6839,24.5
6840,19.7
6841,49.3
6842,14.8
6845,18.1
6849,9.5
6851,22.3
6853,31.3
6854,14.9
6857,21.4
6858,25.2
6861,1.1
6862,16.2
6863,13.9
6864,28.8
6866,1.1
6868,22.4
6871,12.1
6873,23.8
6876,15.9
6881,24.6
6883,24.3
6884,17.2
6885,6.7
6886,7.1
6887,8.2
6888,16.4
6893,24.7
6894,1.1
6897,31.3
6904,7.4
6905,14.5
6907,15.7
6908,-4.7
6910,18.0
6911,24.1
6914,5.9
6915,2.4
6916,14.5
6920,16.4
6921,54.5
6924,3.1
6925,14.2
6926,10.1
6930,16.4
6931,13.8
6932,28.8
6936,7.4
6939,21.8
6940,7.4
6941,8.6
6942,25.5
6943,33.9
6946,4.1
6953,4.4
6955,21.0
6956,20.6
6958,9.6
6959,3.2
6960,16.0
6962,1.4
6964,18.2
6966,13.3
6967,9.9
6968,6.1
6969,21.1
6970,2.7
6975,10.9
6977,41.6
6978,3.6
6979,14.1
6980,0.8
6981,0.3
6982,11.7
6983,16.6
6984,19.7
6986,23.4
6987,10.6
6988,3.4
6989,-9.8
6994,9.2
6997,25.9
6998,9.5
6999,9.5
7000,1.8
7001,51.9
7002,24.8
7003,17.7
7006,1.8
7008,6.0
7010,18.9
7011,24.7
7012,31.3
7014,11.0
7015,21.0
7016,8.2
7018,1.4
7020,13.7
7021,14.9
7023,33.9
7024,9.7
7025,4.7
7026,7.9
7032,5.4
7033,15.4
7034,18.5
7036,8.0
7037,14.7
7038,1.5
7039,9.8
7040,6.9
7041,19.4
7043,5.6
7046,10.8
7048,17.7
7054,8.3
7057,24.4
7058,46.8
7060,23.9
7061,15.2
7065,8.3
7069,-9.8
7071,12.0
7073,14.9
7075,19.1
7076,19.7
7079,24.2
7080,49.3
7081,16.6
7084,13.8
7086,11.3
7090,19.3
7092,31.3
7093,7.8
7098,18.7
7100,15.1
7102,11.2
7103,28.8
7104,10.1
7105,3.2
7107,6.1
7108,22.9
7110,18.6
7114,12.9
7115,15.9
7117,16.3
7119,14.5
7121,10.3
7127,8.2
7131,24.8
7133,9.7
7134,12.2
7136,20.1
7137,31.3
7138,25.2
7139,25.8
7140,18.0
7145,22.0
7148,-7.2
7149,20.8
7150,2.3
7154,6.9
7156,22.2
7158,20.9
7159,51.9
7164,2.6
7166,4.8
7167,0.7
7171,31.3
7174,9.4
7175,12.7
7176,5.6
7181,22.1
7183,33.9
7184,3.7
7185,18.4
7191,18.2
7194,21.0
7196,5.5
7197,17.7
7198,5.5
7199,26.0
7201,10.5
7202,6.7
7203,4.8
7204,14.6
7205,13.3
7206,3.5
7208,6.2
7209,4.3
7211,10.3
7213,20.9
7214,25.1
7215,9.8
7216,22.3
7217,41.6
7218,17.0
7219,6.7
7220,11.4
7221,23.9
7224,16.2
7228,-9.8
7231,18.4
7232,5.8
7233,13.9
7236,8.8
7237,3.7
7238,3.6
7239,49.3
7241,17.8
7242,0.6
7243,2.4
7244,17.9
7245,0.0
7246,11.0
7251,31.3
7252,4.9
7253,19.8
7258,4.6
7259,7.3
7262,3.6
7263,31.3
7269,25.0
7270,12.9
7274,18.5
7275,1.8
7276,15.4
7277,3.9
7279,15.8
7285,8.2
7286,20.8
7287,12.6
7288,21.3
7289,22.4
7290,8.5
7292,7.0
7295,8.9
7296,23.6
7297,23.3
7298,1.5
7299,24.1
7301,8.4
7305,14.8
7307,-4.7
7308,15.8
7312,1.8
7313,14.3
7315,5.7
7319,54.5
7321,0.8
7324,18.6
7328,10.2
7329,7.4
7330,28.8
7331,6.4
7335,17.5
7336,4.8
7339,19.7
7341,25.8
7342,39.1
7343,18.8
7345,3.9
7349,3.3
7352,11.7
7353,23.6
7361,12.1
7363,5.3
7364,13.3
7365,2.0
7367,23.1
7368,13.2
7371,25.0
7372,24.8
7373,10.4
7375,33.9
7376,7.8
7378,12.4
7379,24.1
7382,11.5
7383,5.4
7384,9.4
7385,6.2
7388,-4.7
7389,20.7
7391,8.7
7392,8.1
7394,16.2
7396,20.7
7397,3.5
7399,51.9
7400,7.5
7402,18.9
7405,1.0
7406,12.3
7407,18.4
7410,31.3
7413,18.9
7414,3.4
7415,12.9
7416,0.5
7418,16.8
7420,11.3
7421,33.9
7424,20.3
7425,9.5
7427,4.3
7433,21.0
7434,11.8
7435,3.6
7436,14.8
7441,0.1
7444,13.3
7449,24.1
7450,21.6
7456,41.6
7457,0.4
7460,1.0
7461,18.4
7462,5.0
7463,13.2
7465,25.5
7467,16.5
7468,-7.2
7469,20.6
7471,24.5
7477,23.0
7478,20.7
7479,51.9
7481,24.6
7483,19.0
7484,7.4
7485,11.6
7486,8.2
7487,12.6
7488,15.2
7489,2.7
7490,31.3
7492,24.1
7496,25.5
7498,18.2
7499,14.8
7501,31.3
7503,12.6
7514,18.5
7515,14.9
7519,14.1
7520,7.2
7522,25.9
7525,10.8
7528,20.5
7530,6.7
7531,23.8
7532,13.2
7534,0.9
7535,19.2
7536,46.8
7539,23.1
7544,21.2
7547,-12.4
7550,0.4
7553,7.3
7556,18.3
7557,17.2
7560,44.2
7564,3.7
7567,10.8
7571,28.8
7574,22.7
7576,7.7
7577,3.3
7579,19.4
7580,25.4
7583,23.6
7585,6.7
7586,9.9
7593,3.4
7594,4.1
7595,8.2
7598,14.2
7600,18.3
7602,22.9
7605,5.6
7609,20.9
7610,1.9
7611,22.5
7613,2.7
7614,16.0
7615,33.9
7616,14.6
7619,8.8
7623,6.5
7625,0.1
7626,-4.7
7628,1.9
7631,17.8
7632,11.4
7636,18.2
7638,51.9
7641,23.9
7644,4.2
7645,23.7
7648,21.2
7650,31.3
7651,25.3
7652,18.3
7653,7.9
7654,12.9
7655,4.5
7658,23.1
7659,16.6
7660,8.9
7661,31.3
7662,18.6
7665,19.4
7666,18.1
7667,1.7
7669,13.3
7671,13.0
7672,21.0
7675,3.7
7677,25.1
7678,5.3
7679,13.7
7682,14.2
7684,13.3
7685,12.6
7688,8.6
7689,14.2
7691,22.0
7694,1.8
7695,39.1
7696,13.6
7699,10.0
7700,2.0
7704,19.0
7705,18.1
7706,-9.8
7707,6.6
7708,16.7
7709,10.4
7710,12.2
7711,25.5
7713,15.6
7716,25.3
7717,25.2
7718,49.3
7719,10.2
7720,19.6
7723,8.4
7725,11.1
7726,11.5
7729,7.0
7730,31.3
7731,20.2
7732,10.1
7735,23.0
7736,14.1
7740,25.2
7741,31.3
7743,22.3
7745,22.3
7746,11.6
7747,5.2
7752,18.5
7753,20.9
7755,1.3
7756,14.1
7757,14.9
7761,3.7
7762,2.2
7763,10.8
7764,10.4
7765,0.2
7766,10.9
7768,9.3
7769,8.3
7770,11.7
7771,13.2
7774,24.7
7775,46.8
7777,8.6
7778,17.3
7780,13.6
7782,10.4
7785,8.5
7786,19.7
7787,-12.4
7788,23.1
7792,9.2
7795,25.8
7799,44.2
7800,4.5
7801,12.2
7804,7.1
7805,0.2
7807,10.0
7808,11.6
7810,13.5
7811,31.3
7813,21.0
7814,21.0
7815,22.3
7817,7.6
7820,1.5
7822,21.0
7825,1.9
7826,9.9
7829,6.6
7830,2.8
7832,4.6
7833,8.2
7835,6.7
7837,7.9
7839,1.8
7840,13.3
7843,8.2
7844,15.9
7845,24.3
7848,0.1
7849,20.8
7850,21.7
7854,5.2
7855,31.3
7857,10.6
7859,13.9
7860,11.1
7863,13.3
7864,6.1
7865,8.3
7866,-4.7
7867,12.2
7868,1.1
7870,1.7
7871,0.5
7873,6.4
7874,5.0
7875,22.9
7877,51.9
7878,7.8
7879,24.4
7880,4.0
7881,5.5
7885,16.7
7887,1.6
7888,31.3
7895,1.2
7897,18.0
7899,19.0
7900,33.9
7902,14.1
7904,19.1
7910,5.8
7911,21.0
7914,25.6
7916,20.2
7918,7.2
7921,1.8
7922,7.0
7923,10.8
7924,15.0
7926,15.2
7927,11.3
7932,1.7
7934,41.6
7935,15.8
7937,15.5
7938,22.6
7940,23.9
7944,23.3
7945,22.8
7946,-9.8
7947,3.5
7949,7.1
7953,25.7
7954,14.4
7956,2.8
7957,49.3
7963,9.4
7968,31.3
7969,15.8
7970,13.7
7971,7.8
7973,23.8
7974,12.1
7976,9.2
7978,20.0
7980,19.5
7981,33.9
7983,12.8
7984,25.7
7985,25.3
7986,0.4
7987,8.4
7988,16.6
7989,24.8
7990,14.9
7992,18.5
7993,17.6
7995,23.1
7997,15.2
8000,16.3
8002,14.3
8003,8.2
8005,3.6
8006,25.5
8008,0.0
8013,21.0
8014,18.6
8015,6.5
8019,3.8
8021,22.7
8022,22.3
8023,20.8
8024,25.2
8025,-4.7
8026,9.2
8029,13.8
8032,25.3
8033,3.6
8034,13.5
8036,51.9
8043,15.9
8044,22.6
8046,12.2
8048,28.8
8051,22.0
8057,4.0
8058,5.9
8059,36.5
8060,14.7
8061,11.4
8062,12.0
8064,7.4
8066,11.4
8067,9.4
8068,9.5
8071,23.6
8076,24.7
8081,17.1
8082,15.9
8083,1.7
8084,23.4
8086,19.2
8089,25.8
8090,17.9
8092,18.8
8093,33.9
8094,5.2
8096,13.0
8099,19.6
8102,3.4
8103,15.8
8104,-7.2
8105,20.5
8109,13.5
8111,10.3
8113,13.4
8115,24.4
8116,2.8
8117,51.9
8118,10.9
8119,6.4
8120,19.9
8121,4.4
8122,23.2
8124,0.8
8126,16.7
8127,18.8
8128,31.3
8131,9.8
8133,16.2
8134,7.3
8135,11.9
8136,21.8
8138,7.6
8139,33.9
8143,13.4
8150,2.6
8151,21.0
8152,25.5
8153,5.0
8154,0.1
8155,10.5
8161,21.9
8162,13.3
8163,5.6
8164,25.1
8165,23.8
8166,2.2
8167,2.4
8169,21.1
8170,24.0
8171,20.8
8173,39.1
8176,2.3
8177,14.1
8179,3.9
8182,20.3
8185,-7.2
8186,23.0
8187,21.4
8189,21.4
8197,51.9
8198,14.6
8199,10.8
8202,14.3
8205,21.7
8206,24.3
8207,24.1
8208,31.3
8209,6.1
8211,12.0
8212,3.8
8216,17.0
8219,31.3
8222,3.1
8223,16.2
8224,24.6
8225,0.7
8227,3.9
8230,15.9
8234,4.5
8238,12.3
8240,21.5
8242,8.2
8243,1.5
8244,18.4
8245,20.7
8246,25.4
8249,8.2
8250,7.1
8253,23.6
8255,20.8
8257,14.1
8259,16.6
8261,1.4
8262,23.1
8264,-4.7
8266,7.3
8267,12.1
8272,11.6
8274,8.4
8275,54.5
8281,6.7
8283,16.3
8287,28.8
8288,11.6
8289,12.9
8293,8.2
8294,15.4
8295,2.0
8296,21.3
8298,36.5
8300,22.5
8302,14.1
8304,17.8
8306,21.9
8307,19.5
8309,23.6
8312,12.0
8313,1.7
8316,15.2
8318,8.3
8320,15.7
8322,15.9
8323,14.5
8324,7.9
8328,13.3
8330,15.8
8331,18.5
8333,31.3
8334,10.2
8335,10.5
8339,14.3
8341,13.1
8342,14.3
8343,11.5
8344,-7.2
8345,5.3
8347,0.6
8349,4.0
8351,0.4
8353,12.5
8355,51.9
8356,2.1
8359,6.2
8361,10.4
8362,2.8
8363,3.0
8366,16.4
8367,31.3
8368,17.4
8371,0.7
8373,22.1
8375,19.2
8377,14.2
8379,33.9
8382,21.0
8383,2.6
8385,24.1
8387,16.8
8388,14.0
8389,16.7
8390,18.5
8391,22.0
8395,20.4
8396,2.6
8399,19.9
8401,13.3
8403,21.2
8407,0.7
8410,21.5
8413,41.6
8415,0.2
8417,10.4
8418,18.6
8420,22.1
8421,15.5
8422,22.7
8423,1.2
8424,-9.8
8427,15.2
8435,51.9
8441,5.7
8443,20.3
8446,15.3
8447,3.7
8448,31.3
8449,14.4
8450,23.2
8451,5.8
8453,23.5
8454,13.3
8455,24.2
8456,11.4
8459,31.3
8460,7.9
8462,23.5
8463,24.0
8466,6.3
8467,8.2
8470,15.9
8473,10.9
8474,8.5
8477,13.3
8478,10.8
8479,13.5
8480,19.0
8481,10.8
8482,5.9
8484,25.3
8485,8.8
8486,18.0
8487,0.3
8488,12.7
8489,6.1
8491,2.6
8492,4.4
8493,46.8
8495,20.9
8497,23.4
8501,5.7
8502,8.4
8503,8.8
8504,-12.4
8509,1.1
8510,21.9
8511,8.3
8512,17.6
8513,0.9
8514,3.3
8517,44.2
8520,2.4
8521,12.4
8523,15.7
8524,22.8
8525,5.8
8527,7.1
8528,28.8
8530,21.4
8533,6.8
8534,8.1
8535,25.5
8537,14.0
8539,2.7
8540,21.0
8541,2.0
8542,1.7
8543,23.1
8544,24.7
8545,16.9
8548,18.2
8551,8.2
8553,19.6
8554,24.3
8555,25.4
8556,20.6
8561,8.2
8564,22.1
8566,5.2
8569,13.9
8571,33.9
8572,11.5
8576,8.4
8577,19.5
8579,21.3
8581,20.2
8583,15.6
8584,-4.7
8586,19.3
8588,15.2
8594,11.4
8595,54.5
8596,22.7
8599,16.1
8600,14.0
8601,22.7
8605,3.7
8606,31.3
8610,16.6
8612,7.9
8615,20.2
8616,6.9
8617,33.9
8619,11.1
8620,7.6
8621,10.7
8624,12.3
8627,21.1
8628,0.6
8629,21.0
8633,19.8
8634,6.0
8635,20.1
8637,18.9
8638,11.1
8639,7.8
8640,13.3
8641,0.6
8642,11.2
8645,24.4
8647,15.9
8650,12.5
8651,19.7
8652,39.1
8655,13.2
8659,5.4
8661,3.1
8664,-9.8
8665,15.1
8667,13.0
8668,11.8
8673,23.8
8674,15.6
8675,51.9
8677,18.3
8680,3.8
8684,11.4
8686,31.3
8688,2.7
8689,10.2
8691,14.5
8694,19.3
8695,18.5
8697,31.3
8699,3.6
8700,21.6
8704,8.6
8708,9.6
8709,18.5
8711,18.3
8712,7.9
8714,4.3
8716,21.4
8717,5.9
8718,7.8
8721,10.8
8722,9.8
8723,25.8
8728,9.7
8729,14.3
8730,16.3
8732,44.2
8733,6.6
8739,6.4
8742,11.3
8743,-9.8
8744,10.1
8745,24.6
8746,23.7
8748,7.8
8752,20.7
8755,49.3
8756,22.0
8763,18.4
8764,10.1
8766,31.3
8770,18.9
8772,9.0
8774,16.4
8776,9.3
8778,28.8
8782,7.4
8783,2.1
8784,16.3
8786,7.0
8787,24.2
8788,24.2
8790,15.9
8792,3.0
8795,1.7
8796,0.1
8798,0.3
8800,4.2
8801,8.2
8802,4.3
8805,13.4
8806,2.4
8807,14.7
8808,1.9
8811,31.3
8812,21.7
8813,7.5
8815,26.0
8822,-7.2
8823,5.9
8829,19.8
8831,21.8
8834,51.9
8835,17.4
8836,10.1
8839,23.1
8840,18.3
8846,31.3
8850,6.6
8851,14.6
8853,18.0
8854,21.1
8855,7.5
8857,33.9
8860,19.1
8862,3.3
8864,21.1
8865,22.3
8868,21.0
8869,13.9
8870,7.5
8871,16.6
8873,6.3
8874,5.2
8878,24.3
8880,13.3
8881,21.1
8886,11.0
8887,22.2
8888,9.0
8890,24.3
8891,41.6
8893,0.8
8896,18.9
8899,15.2
8901,18.4
8902,-7.2
8904,4.9
8906,14.5
8907,4.9
8909,9.8
8912,12.0
8913,15.6
8914,51.9
8916,9.8
8918,10.8
8920,11.3
8922,2.0
8926,31.3
8927,3.6
8929,8.1
8930,10.2
8933,6.3
8935,4.5
8937,31.3
8938,24.7
8939,0.8
8940,20.6
8941,21.8
8942,3.5
8946,18.2
8947,5.7
8948,15.9
8951,16.0
8952,14.1
8953,1.9
8954,25.7
8959,18.9
8960,10.8
8961,25.3
8963,14.4
8968,23.2
8969,12.7
8971,46.8
8972,16.0
8974,0.4
8975,12.3
8976,11.8
8977,1.9
8978,3.9
8980,7.9
8982,21.2
8983,-12.4
8984,3.1
8988,7.6
8991,16.0
8992,5.5
8995,41.6
9002,20.2
9003,9.1
9004,11.9
9006,22.1
9007,28.8
9010,23.6
9013,11.3
9017,8.0
9018,21.0
9021,22.6
9024,9.8
9025,1.4
9029,8.2
9039,8.2
9040,14.3
9041,6.4
9042,19.5
9051,33.9
9052,9.9
9053,1.7
9055,15.2
9056,19.5
9060,19.1
9062,-7.2
9066,16.7
9067,23.2
9068,16.5
9071,9.3
9072,19.7
9073,54.5
9077,16.6
9080,12.6
9081,11.4
9084,31.3
9086,22.1
9087,6.8
9089,2.4
9090,15.8
9092,0.7
9093,24.1
9094,25.2
9096,33.9
9097,23.9
9099,14.2
9101,0.1
9102,4.7
9103,20.8
9105,8.9
9106,18.9
9107,21.0
9108,25.4
9109,21.6
9114,20.3
9118,7.0
9119,13.3
9120,7.5
9123,17.8
9124,22.8
9125,10.4
9127,3.7
9128,13.9
9130,13.9
9131,41.6
9132,14.9
9135,7.8
9136,19.6
9137,24.9
9139,1.7
9141,24.1
9142,-9.8
9152,7.2
9153,51.9
9154,19.0
9158,18.1
9159,9.7
9160,12.5
9163,15.1
9164,31.3
9165,5.1
9168,9.3
9169,3.0
9170,18.1
9171,15.3
9172,13.7
9174,12.1
9175,21.4
9176,5.6
9177,31.3
9183,3.5
9184,17.9
9185,7.5
9188,18.5
9190,15.2
9193,7.4
9199,10.8
9201,11.5
9202,16.9
9204,11.0
9205,13.4
9206,1.3
9207,13.7
9208,9.7
9209,1.3
9210,46.8
9211,2.6
9212,18.1
9213,12.5
9220,6.3
9222,-12.4
9226,8.1
9230,15.1
9231,8.4
9233,24.4
9234,41.6
9240,6.5
9241,11.3
9243,13.9
9244,4.4
9246,28.8
9250,2.7
9251,20.8
9252,12.6
9254,14.3
9255,14.3
9257,21.0
9264,2.5
9265,16.0
9266,10.5
9267,13.6
9269,8.2
9270,11.0
9271,3.4
9273,19.8
9274,21.8
9275,10.6
9278,14.2
9279,8.2
9280,21.8
9281,3.7
9283,11.1
9284,15.0
9287,5.1
9289,33.9
9291,24.0
9295,18.8
9298,9.7
9299,6.8
9300,-4.7
9302,18.4
9304,5.1
9305,10.5
9311,1.4
9313,51.9
9316,5.1
9317,4.8
9318,13.1
9319,22.7
9321,25.4
9322,18.0
9323,8.7
9324,31.3
9325,18.1
9326,17.6
9331,23.8
9335,33.9
9338,3.6
9339,7.5
9340,2.5
9341,7.5
9343,4.0
9346,10.5
9347,21.0
9351,12.5
9352,2.7
9353,2.0
9355,8.3
9358,10.8
9359,15.3
9360,3.7
9362,2.5
9364,22.4
9365,11.0
9366,6.5
9368,22.1
9369,41.6
9374,13.5
9375,3.3
9376,22.2
9381,-9.8
9382,7.2
9384,0.8
9386,8.3
9387,22.6
9389,15.3
9393,51.9
9395,4.8
9397,4.6
9398,9.7
9399,3.6
9400,0.7
9402,25.0
9404,33.9
9407,19.2
9408,19.7
9411,22.1
9414,3.0
9415,31.3
9417,5.4
9418,13.9
9419,5.4
9421,15.0
9422,5.0
9423,16.7
9424,9.5
9426,18.5
9433,13.4
9435,24.8
9436,3.0
9438,10.8
9441,5.6
9442,6.3
9443,15.5
9445,8.7
9446,22.4
9448,17.7
9450,46.8
9452,8.7
9453,5.6
9455,4.8
9459,10.4
9461,-12.4
9462,20.1
9468,7.7
9470,11.5
9472,20.6
9474,44.2
9477,4.5
9478,15.2
9481,11.2
9482,5.0
9485,28.8
9486,4.5
9487,1.4
9489,21.1
9491,24.7
9493,6.4
9494,19.5
9495,16.6
9496,21.0
9497,12.3
9498,23.5
9500,21.3
9502,7.2
9503,14.9
9505,16.6
9507,8.2
9515,9.4
9516,16.2
9517,21.6
9518,9.3
9519,8.2
9521,21.7
9524,2.4
9525,17.9
9526,25.9
9528,25.5
9529,33.9
9530,10.5
9531,21.2
9532,14.6
9536,1.7
9539,12.7
9540,-7.2
9541,23.3
9543,25.0
9544,9.6
9548,6.4
9550,16.6
9551,51.9
9552,1.6
9554,23.8
9555,10.8
9556,2.7
9561,12.3
9563,31.3
9565,25.8
9568,5.7
9570,10.5
9571,15.1
9572,9.6
9573,7.5
9574,31.3
9575,11.5
9578,25.8
9582,7.0
9583,19.9
9585,11.3
9586,21.0
9590,8.3
9591,6.1
9595,5.4
9597,10.8
9599,15.1
9600,17.9
9601,24.1
9602,3.3
9605,16.5
9609,41.6
9610,19.9
9611,14.3
9612,8.8
9613,6.5
9614,7.5
9616,22.8
9618,18.4
9619,25.7
9620,-9.8
9624,12.8
9627,15.4
9631,49.3
9633,7.7
9635,8.8
9639,2.1
9641,16.7
9642,22.4
9643,18.1
9644,31.3
9648,10.9
9653,5.1
9655,31.3
9657,16.3
9661,24.2
9662,8.4
9665,5.5
9666,15.9
9667,17.1
9668,10.7
9669,8.5
9671,19.5
9675,6.4
9676,15.0
9677,10.8
9681,10.7
9682,2.6
9683,19.0
9684,3.8
9686,14.7
9689,44.2
9691,15.3
9693,6.1
9698,15.8
9699,23.1
9700,-9.8
9703,14.2
9705,17.1
9706,10.8
9708,9.2
9709,5.8
9712,46.8
9713,24.6
9715,2.2
9716,10.2
9723,31.3
9725,20.3
9727,17.1
9734,18.1
9735,28.8
9736,2.3
9737,6.4
9741,12.9
9743,5.4
9746,15.9
9750,3.4
9753,1.5
9754,18.0
9757,8.2
9761,20.2
9762,20.1
9765,24.5
9766,7.1
9767,33.9
9768,16.0
9769,21.2
9770,24.9
9771,23.5
9772,0.5
9773,23.3
9774,10.1
9775,7.2
9777,5.4
9780,-4.7
9783,3.4
9784,3.2
9785,7.4
9790,20.4
9791,54.5
9792,15.4
9797,7.7
9799,20.1
9800,10.3
9801,8.4
9802,31.3
9803,7.2
9804,3.7
9805,15.0
9806,21.6
9809,4.3
9812,21.9
9814,33.9
9818,7.7
9820,19.5
9821,5.3
9822,21.2
9823,15.5
9825,21.0
9826,12.0
9827,19.4
9828,15.2
9829,21.0
9835,16.4
9836,10.8
9838,7.8
9846,5.6
9848,41.6
9850,21.3
9852,6.8
9853,22.0
9854,2.1
9855,17.4
9857,4.7
9859,10.8
9860,-9.8
9861,23.7
9863,18.7
9865,14.7
9867,2.3
9871,51.9
9872,10.7
9873,25.7
9875,0.7
9877,17.7
9878,14.3
9879,5.7
9880,5.7
9881,2.9
9882,31.3
9883,2.7
9884,10.1
9885,4.4
9887,20.4
9889,14.9
9893,31.3
9894,3.0
9896,20.2
9897,6.4
9898,15.6
9900,19.0
9901,0.9
9902,19.6
9903,5.1
9905,18.5
9906,6.0
9909,25.3
9911,5.6
9912,23.9
9914,10.9
9917,10.8
9918,12.5
9919,20.8
9920,24.9
9925,7.1
9926,20.7
9927,7.3
9928,44.2
9931,21.5
9932,14.2
9934,18.0
9938,2.3
9939,-9.8
9940,1.6
9941,1.9
9943,11.3
9945,15.6
9947,1.0
9950,25.8
9951,49.3
9952,23.6
9953,2.4
9955,10.4
9958,25.4
9961,15.0
9962,31.3
9963,18.5
9964,17.2
9965,2.2
9970,0.6
9971,22.1
9972,17.1
9973,28.8
9975,24.0
9976,23.2
9978,1.0
9979,13.8
9985,21.6
9986,15.9
9988,10.8
9991,10.8
9995,3.1
9996,23.8
9997,5.6
9998,26.0
10001,19.4
10003,1.9
10004,16.1
10006,1.0
10007,33.9
10008,7.6
10012,3.2
10016,22.0
10019,-2.1
10020,5.2
10021,13.1
10023,19.3
10026,8.6
10027,14.4
10028,23.1
10030,25.9
10031,5.4
10032,39.1
10033,5.1
10034,11.1
10037,18.1
10043,14.7
10044,17.5
10045,21.0
10046,12.6
10047,24.4
10051,15.4
10052,5.3
10053,14.1
10055,1.5
10057,5.6
10058,8.4
10059,12.5
10062,22.2
10063,23.0
10064,20.6
10065,3.0
10066,22.8
10067,20.3
10068,54.5
10069,2.5
10072,17.7
10073,24.1
10074,21.2
10075,25.9
10076,7.9
10078,12.1
10079,22.6
10080,4.2
10081,28.8
10086,24.3
10087,14.4
10089,17.0
10090,7.5
10093,28.8
10094,3.1
10096,21.8
10097,11.9
10099,16.4
10102,8.2
10103,23.6
10104,24.3
10105,8.2
10108,2.0
10109,24.2
10110,5.5
10111,11.3
10117,22.1
10118,0.5
10120,9.6
10122,9.9
10124,22.4
10127,4.9
10128,1.9
10129,51.9
10131,14.4
10132,25.1
10135,1.0
10137,16.6
10138,7.8
10139,25.2
10140,17.1
10141,31.3
10142,9.9
10143,20.3
10149,26.0
10153,23.6
10166,21.0
10167,4.4
10168,16.7
10169,3.1
10170,7.4
10173,1.2
10174,18.5
10175,2.1
10176,8.7
10177,8.6
10178,10.7
10179,-12.4
10180,17.2
10182,25.1
10183,4.8
10185,1.7
10186,14.2
10187,21.2
10189,8.8
10191,26.0
10192,36.5
10195,4.6
10196,17.1
10197,19.2
10198,23.2
10200,0.1
10201,16.5
10202,7.4
10204,18.7
10205,13.3
10206,1.7
10209,18.4
10211,15.2
10212,15.5
10216,16.0
10217,-2.1
10218,13.5
10224,23.8
10226,9.3
10227,10.2
10228,7.3
10229,49.3
10231,14.8
10232,24.7
10233,5.7
10235,1.5
10237,9.6
10242,15.4
10243,31.3
10244,16.3
10245,19.0
10246,11.2
10247,9.0
10249,17.2
10252,10.4
10253,9.5
10255,15.9
10259,20.2
10263,7.7
10264,3.8
10265,25.8
10266,11.7
10267,46.8
10269,18.8
10270,11.8
10271,10.1
10274,3.5
10275,17.0
10276,10.5
10279,21.0
10282,0.7
10283,10.0
10284,0.2
10286,0.6
10287,1.1
10288,7.6
10292,31.3
10294,26.0
10297,23.9
10298,2.9
10300,5.8
10303,25.7
10304,13.3
10306,9.8
10307,16.9
10308,25.0
10309,22.4
10310,6.8
10312,20.5
10315,13.3
10317,-2.1
10318,20.2
10321,2.7
10325,0.1
10326,25.2
10328,25.5
10329,10.7
10330,49.3
10333,14.1
10336,1.5
10337,7.1
10338,25.3
10339,19.8
10342,28.8
10343,12.6
10347,13.9
10348,0.2
10352,10.6
10353,5.0
10354,13.3
10356,18.7
10360,3.2
10362,22.6
10365,17.1
10366,49.3
10368,3.6
10369,3.7
10373,3.9
10374,4.5
10376,4.0
10379,0.3
10380,23.6
10382,7.2
10383,8.5
10387,4.0
10388,5.0
10390,26.0
10391,15.4
10392,31.3
10394,7.7
10398,0.0
10399,2.4
10404,13.3
10406,18.9
10407,14.4
10408,11.8
10409,20.9
10410,5.9
10412,23.1
10413,2.6
10417,-2.1
10422,3.0
10423,6.4
10427,17.3
10429,49.3
10430,21.5
10431,24.6
10433,8.2
10434,8.3
10437,20.3
10438,11.5
10439,3.8
10442,28.8
10445,19.9
10447,13.8
10450,3.4
10455,13.3
10458,21.5
10461,20.6
10463,11.4
10466,3.1
10467,49.3
10471,18.2
10472,17.3
10474,24.9
10475,14.5
10476,1.1
10478,19.7
10479,23.6
10480,13.6
10482,0.8
10484,24.1
10485,0.4
10488,1.9
10491,31.3
10492,23.3
10493,2.7
10495,7.5
10496,22.5
10499,24.5
10500,6.3
10501,2.0
10504,10.8
10505,8.7
10507,19.7
10509,20.5
10511,13.3
10512,23.6
10513,24.2
10514,6.8
10515,12.2
10517,-4.7
10520,10.7
10523,11.8
10528,19.1
10529,46.8
10530,16.3
10532,14.3
10536,4.6
10537,16.7
10539,17.5
10540,24.1
10542,28.8
10543,5.8
10544,10.0
10545,19.7
10547,12.9
10548,23.7
10549,16.7
10551,25.2
10554,13.3
10557,17.5
10559,5.9
10566,51.9
10567,14.5
10569,20.1
10570,17.4
10572,2.5
10575,21.4
10579,26.2
10583,16.1
10586,23.5
10588,11.6
10591,24.2
10592,31.3
10594,23.5
10596,21.4
10597,10.5
10601,15.0
10602,8.3
10603,8.6
10604,10.8
10605,8.4
10606,9.0
10607,12.8
10609,9.7
10611,14.9
10613,18.1
10616,-7.2
10617,0.5
10618,19.7
10620,4.9
10621,23.3
10622,0.0
10625,10.9
10626,25.1
10627,14.7
10629,46.8
10630,1.3
10631,7.7
10632,23.2
10634,13.5
10635,20.8
10639,11.2
10640,9.8
10642,26.2
10644,18.9
10645,10.1
10646,10.9
10648,6.3
10649,11.8
10650,7.1
10651,11.5
10654,10.8
10655,1.1
10657,10.4
10658,3.7
10660,10.8
10662,24.1
10666,10.9
10667,51.9
10668,14.6
10670,7.8
10671,23.4
10672,1.5
10673,9.3
10674,16.5
10676,13.3
10679,28.8
10680,5.1
10688,18.8
10690,16.0
10691,28.8
10692,4.2
10693,15.9
10694,10.3
10695,7.0
10699,12.0
10703,8.2
10709,21.8
10710,22.4
10712,4.7
10713,20.9
10714,21.1
10715,13.8
10716,0.5
10717,17.6
10718,6.3
10719,3.7
10721,6.5
10723,5.5
10726,13.3
10727,54.5
10730,19.9
10732,7.1
10733,11.8
10734,3.3
10735,2.9
10736,8.6
10737,6.4
10738,22.7
10739,31.3
10740,15.6
10741,8.5
10742,8.8
10743,11.9
10747,22.0
10752,23.6
10754,15.2
10756,0.7
10758,4.5
10759,13.0
10760,21.0
10764,21.0
10765,0.4
10768,7.2
10770,9.6
10774,1.6
10777,-12.4
10780,25.9
10783,5.5
10784,17.1
10785,16.1
10786,8.8
10787,15.6
10790,36.5
10794,9.3
10795,24.2
10796,22.1
10797,8.4
10799,14.0
10803,13.3
10804,21.1
10806,13.7
10807,5.9
10808,7.3
10814,23.7
10815,-2.1
10816,3.6
10817,11.3
10818,4.8
10820,22.9
10822,16.0
10824,2.4
10825,4.1
10826,12.6
10827,51.9
10831,24.7
10832,15.6
10833,21.6
10834,0.7
10835,2.3
10838,12.1
10839,24.1
10841,31.3
10844,4.6
10846,3.1
10849,17.8
10851,15.3
10853,15.9
10854,23.4
10857,9.9
10858,5.5
10859,22.3
10863,21.7
10864,10.3
10865,46.8
10866,25.6
10869,21.3
10871,19.5
10872,25.3
10874,3.1
10877,18.5
10881,6.0
10886,4.1
10888,1.2
10889,13.8
10890,36.5
10891,24.4
10893,9.3
10900,4.8
10902,13.3
10903,1.2
10905,2.5
10908,15.2
10909,2.8
10911,6.2
10912,6.3
10913,9.7
10915,-4.7
10917,5.9
10918,15.7
10922,2.2
10925,1.6
10928,51.9
10930,1.5
10934,0.6
10936,18.4
10940,28.8
10941,16.8
10944,11.2
10947,9.8
10951,4.8
10952,15.9
10958,8.9
10959,18.6
10960,17.6
10961,18.2
10962,1.7
10963,19.2
10964,49.3
10965,9.2
10968,15.6
10976,0.1
10977,11.7
10978,21.0
10979,25.9
10981,21.1
10982,3.7
10983,0.0
10984,20.6
10985,8.9
10986,20.9
10989,5.6
10990,33.9
10991,19.3
10992,2.2
10993,10.0
10995,16.3
11000,12.1
11002,13.3
11004,20.3
11006,20.0
11007,7.4
11008,9.8
11010,11.5
11011,7.5
11013,6.4
11014,0.3
11015,-4.7
11017,19.2
11018,16.0
11022,24.6
11025,9.2
11027,51.9
11028,17.6
11031,18.2
11035,2.7
11038,2.1
11039,28.8
11040,11.7
11046,13.0
11052,25.2
11053,13.3
11054,18.5
11055,8.8
11056,9.0
11057,17.1
11058,16.9
11059,19.8
11065,51.9
11066,1.7
11069,0.7
11070,15.0
11073,14.4
11075,21.4
11077,26.2
11078,16.8
11079,12.4
11081,1.4
11085,17.2
11086,20.7
11087,16.2
11089,31.3
11090,4.1
11092,6.4
11094,17.6
11095,10.2
11096,16.3
11101,17.7
11102,10.8
11103,11.5
11107,10.0
11109,21.5
11112,16.4
11114,5.3
11115,-7.2
11116,6.4
11118,3.9
11122,17.8
11123,3.2
11126,9.2
11127,49.3
11128,4.0
11130,22.6
11131,9.8
11132,16.5
11133,18.7
11136,16.8
11140,26.2
11143,9.6
11146,5.7
11147,12.9
11148,2.2
11149,22.0
11151,15.8
11152,13.3
11156,5.0
11160,1.0
11162,24.4
11164,51.9
11165,6.4
11167,21.6
11173,20.1
11174,6.4
11175,19.6
11177,26.2
11179,14.7
11181,18.1
11182,22.7
11185,18.3
11187,1.9
11188,3.7
11189,11.4
11190,31.3
11192,15.6
11193,16.3
11197,22.1
11198,9.9
11199,5.4
11200,25.2
11202,10.8
11207,19.6
11208,13.9
11209,6.7
11210,12.8
11211,14.4
11212,20.8
11213,12.9
11214,-4.7
11218,8.9
11222,1.9
11225,25.6
11227,46.8
11230,23.3
11235,23.9
11239,28.8
11240,3.6
11241,2.5
11246,20.3
11250,17.3
11251,0.8
11252,10.8
11256,10.1
11257,9.2
11259,18.2
11261,10.2
11265,51.9
11266,4.8
11269,11.6
11270,20.6
11274,5.7
11275,23.1
11277,28.8
11278,1.7
11282,3.8
11283,4.8
11284,7.3
11285,24.5
11286,5.7
11287,21.0
11288,6.5
11289,28.8
11290,24.7
11292,9.5
11293,10.2
11296,24.2
11297,10.0
11298,12.2
11301,10.8
11304,10.7
11309,13.8
11311,13.3
11314,15.3
11315,-7.2
11316,4.2
11317,7.2
11318,20.9
11319,7.5
11320,9.6
11321,3.1
11323,8.0
11324,16.3
11325,8.2
11327,46.8
11328,24.9
11332,15.0
11333,25.2
11334,10.9
11337,10.0
11338,24.1
11339,26.2
11343,22.3
11348,3.7
11350,17.5
11352,8.2
11354,22.5
11356,19.9
11359,19.5
11363,46.8
11364,22.8
11366,18.5
11368,4.7
11372,24.6
11373,19.2
11375,18.3
11376,13.3
11377,16.0
11380,15.2
11381,5.6
11382,17.8
11383,7.0
11384,3.6
11386,3.4
11387,2.9
11388,36.5
11389,11.4
11392,20.3
11401,15.9
11403,9.7
11404,0.1
11413,-2.1
11414,3.8
11415,5.1
11416,23.2
11418,12.0
11422,25.6
11425,49.3
11427,17.9
11430,22.2
11433,17.4
11435,18.2
11436,7.5
11438,31.3
11440,9.0
11443,12.8
11444,14.7
11445,22.3
11446,3.6
11447,3.0
11450,13.5
11451,15.9
11452,18.2
11454,1.4
11455,0.6
11456,6.0
11457,15.9
11458,3.5
11460,7.6
11462,14.4
11463,46.8
11464,21.9
11465,24.5
11467,24.6
11475,21.0
11477,20.1
11479,5.0
11482,16.8
11483,22.9
11486,18.0
11488,33.9
11490,24.1
11491,18.2
11493,7.0
11495,1.7
11496,24.0
11500,13.3
11502,12.7
11503,19.9
11505,11.6
11512,10.3
11513,-2.1
11514,10.6
11519,5.7
11520,3.7
11521,22.4
11522,25.5
11523,13.5
11525,5.2
11526,51.9
11528,2.9
11530,25.7
11531,23.0
11533,21.5
11535,0.7
11538,28.8
11540,24.7
11542,1.3
11543,23.1
11545,17.6
11550,13.3
11552,7.6
11554,23.9
11556,3.3
11559,21.2
11561,20.1
11563,49.3
11566,22.6
11568,5.3
11569,25.8
11570,5.5
11571,22.1
11572,17.6
11576,21.0
11578,9.9
11581,24.6
11582,13.2
11583,24.4
11588,33.9
11589,18.0
11590,15.7
11592,13.0
11593,19.2
11595,2.2
11598,5.4
11600,13.3
11601,0.2
11602,8.7
11603,17.6
11604,15.8
11605,7.4
11608,11.3
11613,-4.7
11614,23.8
11615,3.5
11616,14.6
11620,9.6
11625,49.3
11631,10.9
11633,14.8
11635,21.7
11636,3.0
11637,28.8
11638,4.9
11642,6.8
11643,9.6
11644,22.5
11645,23.6
11647,24.2
11649,9.7
11651,13.3
11652,21.4
11654,25.2
11657,22.7
11663,51.9
11664,2.0
11666,23.4
11668,7.6
11671,2.9
11672,9.0
11675,23.6
11676,23.4
11678,18.6
11681,23.3
11684,16.7
11687,31.3
11688,14.1
11689,1.3
11692,24.7
11694,19.1
11696,15.0
11697,19.7
11698,19.1
11699,7.4
11700,10.8
11702,16.6
11703,1.6
11706,1.6
11708,6.3
11709,9.1
11710,10.0
11711,13.2
11712,2.0
11713,-4.7
11714,5.6
11717,8.6
11719,13.6
11725,49.3
11726,17.0
11727,7.1
11734,16.8
11735,12.4
11736,11.9
11737,9.2
11738,28.8
11739,1.3
11740,1.1
11741,16.6
11742,2.7
11744,10.5
11745,24.2
11746,9.9
11750,10.8
11754,11.6
11755,12.7
11756,21.2
11761,14.3
11762,54.5
11763,0.9
11766,25.0
11771,15.8
11772,4.0
11773,12.0
11775,23.7
11776,26.2
11781,2.7
11787,23.3
11788,31.3
11790,13.7
11791,14.5
11795,18.3
11796,12.6
11798,2.7
11799,2.4
11800,8.2
11801,9.5
11802,24.1
11805,11.0
11807,20.8
11808,25.4
11809,2.9
11811,0.5
11812,14.8
11814,12.2
11815,21.6
11817,11.4
11818,15.1
11819,18.5
11822,5.3
11823,54.5
11826,5.2
11827,10.8
11832,12.4
11833,1.1
11834,8.3
11835,31.3
11838,0.7
11840,25.2
11843,13.9
11846,9.7
11847,6.6
11848,26.2
11851,16.7
11852,1.7
11854,9.0
11857,8.5
11858,18.3
11859,14.2
11860,13.3
11863,6.4
11864,24.7
11866,25.7
11867,15.0
11868,15.4
11869,19.8
11873,-12.4
11874,4.2
11875,4.1
11878,10.4
11880,3.7
11881,12.2
11883,20.2
11884,12.5
11886,36.5
11887,14.5
11888,1.7
11889,8.6
11896,21.2
11897,24.2
11898,15.9
11901,11.1
11902,12.6
11903,22.6
11905,0.1
11906,22.7
11912,0.5
11918,5.3
11919,3.9
11920,13.4
11923,54.5
11925,5.3
11927,23.4
11928,12.0
11929,12.5
11932,10.0
11935,33.9
11938,15.4
11939,21.1
11940,5.8
11942,8.2
11944,16.6
11948,26.2
11953,21.1
11955,18.5
11956,4.3
11958,3.3
11960,21.0
11964,13.5
11965,24.5
11969,11.1
11970,25.2
11973,-9.8
11976,0.1
11977,14.2
11978,21.3
11983,24.5
11984,0.2
11985,44.2
11986,23.8
11987,24.0
11989,3.3
11992,18.8
11993,0.2
11994,11.9
11995,21.5
11997,14.4
11998,21.0
12000,18.6
12002,4.3
12003,12.6
12004,12.4
12005,11.9
12008,19.4
12010,8.2
12012,19.6
12014,3.1
12017,19.8
12019,7.6
12020,8.3
12021,49.3
12023,18.0
12024,12.5
12025,13.1
12028,10.1
12029,0.0
12030,15.7
12032,0.2
12033,23.6
12034,23.6
12036,3.8
12038,1.2
12039,3.7
12043,22.3
12044,3.7
12045,7.7
12047,31.3
12051,7.5
12052,5.6
12053,17.6
12054,1.3
12055,19.2
12056,12.6
12057,21.4
12058,17.2
12059,10.8
12065,25.6
12067,2.4
12068,16.1
12071,-4.7
12073,24.1
12077,18.5
12080,11.1
12081,3.1
12082,15.1
12084,49.3
12085,16.4
12087,2.8
12088,9.5
12089,15.9
12090,9.1
12094,10.4
12096,28.8
12097,20.0
12098,10.6
12100,1.1
12101,15.8
12102,17.7
12105,13.6
12109,10.8
12110,6.1
12111,7.5
12112,6.9
12116,0.5
12118,18.5
12122,49.3
12123,4.0
12125,24.3
12127,21.8
12128,24.6
12130,25.6
12133,9.9
12134,26.2
12141,18.5
12143,5.1
12146,31.3
12147,11.9
12149,5.2
12150,18.1
12153,3.3
12156,2.3
12158,10.8
12159,2.0
12160,6.7
12163,25.6
12167,18.3
12168,11.9
12170,9.4
12172,-4.7
12174,7.4
12179,17.5
12180,11.0
12184,49.3
12185,19.8
12186,8.7
12193,20.5
12195,15.3
12196,28.8
12198,2.1
12200,24.6
12203,1.0
12204,18.3
12206,1.1
12209,10.8
12210,10.3
12211,21.5
12215,3.9
12216,0.2
12221,51.9
12224,13.1
12225,3.5
12229,9.1
12232,14.9
12233,26.2
12238,5.4
12239,6.8
12240,12.2
12244,8.7
12245,11.8
12246,14.5
12247,28.8
12249,22.2
12250,5.7
12252,7.5
12255,13.0
12256,5.4
12257,12.8
12258,2.3
12259,8.2
12261,4.9
12265,7.4
12267,10.5
12269,14.8
12270,0.5
12271,21.3
12273,10.0
12275,25.2
12276,18.5
12278,24.0
12279,25.6
12281,54.5
12283,10.1
12289,7.4
12294,31.3
12295,21.6
12297,21.1
12301,0.6
12304,5.4
12305,24.5
12306,24.7
12307,23.6
12312,18.0
12313,21.2
12314,10.6
12317,9.5
12319,18.5
12320,20.2
12325,3.7
12330,10.2
12331,8.7
12332,-9.8
12336,22.3
12339,15.4
12341,4.3
12342,18.7
12343,17.4
12344,44.2
12346,7.5
12347,1.0
12348,0.9
12349,22.9
12351,17.6
12356,21.0
12358,3.7
12362,14.2
12363,17.3
12367,2.2
12368,8.2
12369,17.3
12373,9.8
12374,0.5
12376,2.2
12377,0.6
12381,49.3
12383,19.9
12386,7.3
12387,21.4
12388,12.9
12392,3.0
12393,23.6
12394,24.8
12396,5.3
12397,1.5
12398,16.8
12399,18.9
12400,25.7
12405,31.3
12406,8.3
12413,10.9
12414,17.0
12416,5.6
12418,10.8
12421,15.6
12422,19.8
12423,23.3
12425,21.1
12427,2.3
12430,-7.2
12434,1.5
12436,18.8
12442,15.3
12443,49.3
12444,13.7
12447,15.5
12449,6.1
12450,14.4
12451,13.5
12453,18.9
12455,28.8
12456,21.0
12459,8.1
12462,21.4
12464,25.1
12465,4.5
12466,16.7
12467,24.7
12468,13.3
12469,8.7
12471,24.7
12474,1.7
12476,14.1
12478,24.5
12480,51.9
12481,19.7
12483,16.2
12485,1.3
12486,19.2
12488,1.3
12490,6.8
12491,5.7
12492,26.2
12495,11.5
12498,11.0
12499,6.3
12501,10.9
12503,4.4
12505,23.8
12506,31.3
12508,0.6
12511,20.5
12515,2.1
12516,25.6
12518,10.8
12519,17.5
12521,11.2
12524,1.7
12525,22.2
12526,22.5
12530,-7.2
12533,14.9
12536,20.3
12539,23.2
12540,25.5
12542,46.8
12543,20.0
12545,22.0
12547,22.7
12548,23.7
12549,5.7
12551,25.8
12552,22.4
12555,26.2
12558,2.3
12559,25.5
12560,17.7
12564,24.6
12565,17.5
12567,10.8
12569,19.3
12571,0.2
12573,15.9
12574,12.9
12575,5.3
12577,11.6
12578,13.1
12579,25.4
12580,54.5
12581,2.5
12582,15.2
12583,3.2
12586,8.0
12587,17.3
12588,15.8
12589,12.3
12591,10.6
12593,26.2
12596,22.5
12597,16.8
12598,19.7
12600,2.7
12605,28.8
12608,21.1
12609,11.1
12610,17.9
12611,2.6
12612,12.9
12617,10.8
12618,10.4
12619,23.3
12622,17.1
12624,14.1
12627,24.9
12628,10.6
12630,-7.2
12631,6.1
12633,14.2
12635,23.6
12637,17.3
12639,0.6
12642,18.9
12643,46.8
12649,10.3
12650,20.2
12651,16.6
12652,12.0
12653,10.4
12655,26.2
12656,15.4
12658,4.8
12662,11.2
12664,11.5
12666,21.6
12667,8.2
12672,13.4
12674,14.8
12679,44.2
12680,17.9
12682,11.6
12687,10.3
12688,24.7
12689,25.7
12691,15.9
12695,8.4
12696,4.9
12702,23.8
12703,36.5
12705,15.7
12706,23.2
12708,14.0
12710,15.8
12711,12.1
12716,15.1
12717,13.3
12718,6.3
12719,8.3
12720,13.9
12722,3.5
12723,8.9
12724,12.4
12725,12.1
12728,11.3
12729,0.5
12730,25.3
12731,21.7
12732,9.9
12738,0.6
12740,54.5
12741,21.8
12744,23.7
12745,9.6
12746,19.3
12747,0.6
12748,0.8
12749,1.9
12750,18.5
12751,24.3
12752,33.9
12756,3.2
12757,11.5
12759,23.2
12760,20.3
12765,23.6
12766,8.6
12767,14.3
12770,4.9
12773,1.8
12777,21.4
12778,23.6
12779,15.3
12780,24.7
12781,9.2
12782,10.3
12785,20.8
12786,13.9
12787,11.5
12790,-12.4
12791,16.9
12792,21.9
12794,8.0
12795,11.1
12796,1.5
12797,16.9
12803,20.1
12804,33.9
12807,0.1
12808,15.7
12809,6.8
12815,15.5
12816,13.3
12818,16.6
12819,13.6
12820,11.6
12821,21.7
12824,12.8
12825,16.6
12826,25.8
12828,-2.1
12831,16.3
12832,16.7
12833,20.1
12834,15.3
12837,0.5
12838,2.6
12841,49.3
12842,22.8
12843,8.8
12844,0.3
12846,16.7
12848,10.2
12850,16.3
12851,12.8
12852,4.4
12854,31.3
12855,19.6
12856,0.6
12857,17.2
12858,15.6
12859,3.9
12860,4.7
12861,5.9
12864,4.9
12866,15.9
12868,15.7
12871,21.3
12873,16.5
12876,0.4
12878,46.8
12879,4.4
12882,1.1
12883,20.3
12884,13.0
12885,5.1
12887,24.5
12888,21.1
12891,21.0
12894,20.4
12897,23.5
12898,16.9
12899,11.0
12902,6.7
12903,33.9
12910,20.9
12912,11.7
12913,6.2
12914,24.6
12915,19.1
12916,10.8
12917,7.5
12920,0.6
12921,21.0
12922,12.9
12923,20.3
12924,2.4
12925,16.7
12927,7.2
12928,10.2
12929,-4.7
12931,17.2
12933,15.5
12941,51.9
12946,23.4
12947,17.6
12948,23.6
12951,6.6
12953,31.3
12954,18.7
12955,14.1
12956,12.8
12957,5.4
12958,16.8
12960,6.6
12961,9.7
12964,6.6
12965,13.3
12966,18.8
12969,7.3
12970,17.0
12971,23.3
12972,25.4
12973,17.2
12975,10.9
12976,24.1
12978,13.4
12979,49.3
12981,17.3
12983,22.7
12986,13.2
12988,20.5
12989,14.6
12991,23.6
12994,22.3
13001,17.2
13002,24.1
13003,31.3
13007,17.0
13009,24.6
13013,16.4
13016,10.8
13017,22.2
13019,21.6
13025,5.6
13026,25.4
13028,-7.2
13029,21.6
13033,13.5
13035,6.2
13036,0.8
13041,49.3
13042,17.2
13043,12.0
13044,9.5
13046,12.2
13048,24.0
13051,23.4
13053,28.8
13054,7.6
13056,4.1
13057,23.0
13059,10.6
13060,20.9
13062,14.6
13063,17.1
13066,13.3
13069,16.9
13070,7.8
13076,22.7
13078,51.9
13082,18.9
13083,25.9
13084,18.0
13086,22.5
13088,0.8
13090,28.8
13091,0.6
13095,18.8
13098,7.9
13099,20.8
13100,9.4
13101,18.7
13104,31.3
13107,15.5
13110,13.8
13113,10.4
13114,4.3
13115,21.4
13116,8.2
13118,1.3
13119,5.1
13120,4.5
13123,25.6
13125,15.7
13126,5.1
13127,3.0
13130,1.2
13133,12.2
13136,5.9
13138,51.9
13139,19.2
13142,23.6
13144,22.0
13146,15.3
13147,7.0
13148,20.5
13149,9.0
13151,31.3
13153,16.4
13155,17.8
13160,6.3
13163,26.2
13165,24.1
13168,1.6
13169,3.6
13171,14.5
13174,9.1
13176,13.3
13178,9.2
13181,17.6
13189,-9.8
13192,17.9
13195,16.5
13201,44.2
13205,7.8
13206,8.9
13207,17.1
13209,24.9
13211,2.4
13212,5.5
13213,23.6
13214,5.9
13217,1.7
13218,23.6
13219,15.5
13223,20.1
13224,17.9
13225,8.2
13227,17.8
13231,21.4
13232,19.5
13234,16.1
13236,21.6
13238,49.3
13240,8.6
13244,2.0
13245,18.8
13246,23.5
13247,2.9
13249,6.2
13250,18.5
13254,9.2
13256,0.8
13258,25.8
13260,4.3
13262,33.9
13265,9.3
13267,23.0
13268,21.2
13269,3.9
13271,11.3
13272,17.6
13273,23.6
13275,13.3
13277,21.0
13278,8.9
13280,18.0
13281,13.6
13282,12.9
13283,13.7
13286,14.4
13287,-2.1
13291,17.6
13292,9.1
13293,8.9
13294,2.1
13295,16.4
13299,49.3
13304,11.2
13307,1.1
13310,15.7
13313,28.8
13319,23.6
13320,2.1
13321,6.0
13323,2.4
13325,15.9
13326,12.4
13328,23.4
13330,7.9
13332,21.5
13334,8.1
13335,17.8
13337,49.3
13338,17.9
13339,18.2
13342,24.0
13344,10.9
13349,23.6
13351,12.3
13352,14.1
13357,2.8
13358,11.8
13359,6.4
13360,6.5
13362,31.3
13367,2.5
13368,21.9
13370,22.0
13373,17.4
13375,10.8
13379,21.6
13382,9.7
13384,11.0
13386,18.8
13387,-4.7
13390,22.6
13395,4.3
13396,11.1
13397,23.0
13398,4.5
13399,11.0
13400,49.3
13401,13.4
13403,13.7
13406,13.3
13409,20.4
13410,11.5
13411,4.2
13412,28.8
13413,15.3
13414,24.3
13415,11.0
13418,6.1
13420,15.7
13421,11.2
13422,0.5
13424,13.3
13425,21.9
13426,24.0
13430,15.5
13431,24.7
13434,11.3
13435,12.8
13437,51.9
13439,1.5
13441,8.7
13449,18.5
13450,26.2
13452,18.7
13454,21.4
13455,14.0
13461,23.9
13462,31.3
13466,3.3
13467,17.6
13469,18.8
13474,10.8
13475,11.5
13476,17.6
13477,2.6
13479,4.5
13480,19.8
13481,7.3
13483,6.0
13487,-7.2
13488,20.2
13493,23.9
13494,13.8
13495,1.0
13496,13.1
13497,22.1
13498,2.4
13499,49.3
13504,7.6
13505,4.0
13510,3.8
13512,26.2
13513,15.8
13515,6.3
13516,7.7
13522,1.2
13523,17.7
13524,10.8
13525,14.4
13529,20.4
13530,6.2
13532,6.4
13533,3.4
13535,9.4
13537,54.5
13540,9.6
13545,9.8
13546,4.8
13549,28.8
13553,15.9
13555,2.9
13557,8.6
13559,15.4
13560,19.5
13561,31.3
13562,16.3
13564,5.0
13565,2.2
13568,22.1
13571,5.3
13573,7.8
13574,11.3
13575,8.2
13577,16.0
13586,0.5
13591,5.9
13594,20.7
13595,23.1
13596,17.8
13597,54.5
13599,22.2
13602,17.3
13603,15.2
13605,12.6
13609,31.3
13610,17.6
13611,2.8
13615,0.4
13616,3.8
13622,26.2
13623,15.2
13626,24.7
13627,24.3
13628,15.7
13629,10.1
13631,20.3
13632,8.8
13634,21.0
13635,1.7
13636,11.7
13638,22.3
13639,13.2
13640,21.9
13642,3.7
13643,16.0
13646,19.3
13647,-9.8
13648,19.0
13651,12.7
13652,21.3
13653,4.0
13654,2.5
13655,14.3
13656,10.3
13660,44.2
13662,23.4
13668,20.5
13669,11.5
13670,17.7
13671,11.3
13672,21.0
13673,12.6
13676,20.1
13680,9.3
13681,14.7
13682,17.7
13684,8.2
13685,12.7
13687,11.5
13688,7.6
13692,22.1
13695,19.3
13696,51.9
13698,21.9
13699,2.1
13703,22.4
13705,1.5
13706,7.1
13709,23.6
13711,1.3
13712,21.0
13713,4.6
13717,3.4
13719,16.8
13720,19.3
13721,31.3
13724,13.5
13725,14.6
13730,14.4
13731,0.9
13733,10.8
13746,-7.2
13748,5.5
13749,24.4
13751,16.6
13752,22.9
13754,4.4
13755,8.2
13756,10.4
13757,19.8
13758,49.3
13759,1.2
13761,16.9
13762,1.2
13763,0.2
13771,28.8
13773,20.3
13774,20.5
13776,7.1
13777,17.8
13778,11.9
13779,9.0
13784,13.3
13785,16.3
13786,13.9
13787,18.8
13794,6.2
13796,51.9
13797,11.0
13798,13.1
13799,1.2
13801,23.1
13802,21.6
13803,17.3
13804,11.6
13805,1.9
13808,28.8
13813,22.7
13814,8.2
13816,6.3
13817,7.3
13818,1.6
13820,31.3
13821,14.2
13823,4.2
13824,0.1
13826,6.1
13827,17.1
13829,4.4
13831,20.7
13832,4.5
13833,8.2
13836,20.0
13838,19.2
13842,17.8
13843,2.0
13844,19.6
13845,3.0
13849,10.1
13850,3.2
13851,20.3
13853,10.7
13854,10.8
13856,54.5
13858,0.2
13860,14.0
13861,17.6
13862,17.7
13864,16.9
13866,18.2
13867,25.7
13868,19.2
13869,28.8
13873,15.6
13874,12.1
13879,13.3
13881,26.2
13882,18.4
13883,16.8
13885,11.1
13886,4.8
13889,1.1
13891,9.2
13893,13.3
13895,2.1
13898,18.2
13899,2.6
13901,1.3
13902,12.3
13906,-9.8
13907,0.2
13910,3.0
13913,6.3
13914,14.6
13915,22.7
13916,0.7
13919,46.8
13920,17.0
13922,13.9
13923,15.8
13924,2.7
13928,5.6
13931,23.6
13932,0.2
13935,9.7
13936,19.9
13938,22.9
13939,15.2
13942,2.1
13943,8.2
13947,6.9
13950,16.7
13951,9.4
13952,24.3
13953,10.9
13955,49.3
13956,12.3
13958,16.0
13959,8.9
13962,10.1
13964,3.0
13965,4.8
13967,21.0
13968,11.1
13970,2.0
13971,11.4
13973,19.1
13976,21.1
13977,17.9
13978,17.6
13979,13.0
13980,31.3
13984,19.5
13989,22.0
13990,6.3
13992,13.3
13993,9.2
13994,2.8
13997,19.3
14000,19.9
14003,9.9
14004,20.2
14005,-2.1
14007,14.1
14008,24.4
14009,9.7
14012,12.9
14014,11.9
14017,51.9
14018,5.1
14025,22.0
14027,13.6
14028,19.4
14029,28.8
14033,21.4
14037,1.2
14038,19.0
14039,5.7
14043,13.3
14045,17.0
14046,18.7
14049,24.8
14052,17.3
14053,25.0
14055,49.3
14056,7.9
14058,20.5
14059,23.0
14061,4.6
14062,11.0
14063,18.9
14065,0.0
14067,26.2
14069,24.7
14074,2.9
14075,20.9
14076,10.8
14077,2.5
14080,31.3
14081,7.8
14082,16.3
14083,2.7
14088,4.8
14089,13.3
14090,2.9
14091,10.3
14092,10.8
14093,13.8
14095,11.0
14099,23.1
14100,10.8
14102,12.5
14105,-4.7
14106,21.9
14109,10.1
14114,9.8
14115,25.4
14116,10.1
14117,49.3
14121,13.3
14122,12.6
14127,0.6
14130,28.8
14131,9.8
14132,14.5
14136,25.0
14140,0.1
14142,13.3
14143,7.2
14146,5.7
14148,17.8
14149,23.9
14150,5.9
14154,54.5
14160,19.0
14161,17.9
14162,2.0
14163,9.0
14166,25.4
14167,26.2
14169,19.4
14170,3.8
14178,24.8
14179,25.7
14180,31.3
14184,15.4
14185,17.2
14186,4.4
14191,24.3
14192,10.8
14194,10.0
14195,15.6
14196,7.3
14198,1.1
14199,6.9
14203,9.8
14204,-7.2
14205,24.4
14207,3.8
14208,2.4
14211,14.1
14213,4.4
14214,13.4
14217,49.3
14219,7.3
14220,3.2
14221,5.0
14222,2.3
14227,3.0
14229,28.8
14231,18.1
14232,20.1
14235,24.6
14240,17.0
14241,22.0
14242,10.8
14243,12.5
14245,17.6
14250,13.7
14251,19.0
14252,21.7
14254,13.5
14255,54.5
14256,6.6
14257,15.0
14258,23.3
14259,15.1
14260,11.7
14262,15.6
14263,8.2
14265,24.2
14267,28.8
14271,3.5
14272,12.7
14274,2.9
14275,14.2
14276,10.6
14278,8.7
14279,28.8
14280,10.9
14281,13.4
14282,2.5
14283,16.1
14287,17.2
14289,25.9
14290,23.2
14291,8.2
14292,0.2
14293,2.0
14294,5.5
14296,20.8
14297,22.2
14298,22.5
14299,8.1
14300,22.4
14301,2.5
14302,10.6
14304,-2.1
14309,21.6
14312,4.4
14315,12.0
14316,51.9
14317,24.8
14318,21.7
14319,11.7
14320,4.6
14322,22.5
14324,10.8
14326,10.9
14328,31.3
14329,7.9
14330,10.7
14331,12.7
14332,14.6
14333,1.8
14334,14.9
14335,23.2
14336,13.7
14339,17.9
14340,15.3
14341,18.5
14345,15.1
14347,15.2
14351,10.2
14353,44.2
14354,25.4
14356,4.3
14359,1.2
14360,19.9
14363,16.7
14364,0.3
14365,15.9
14366,2.0
14367,25.8
14368,9.0
14373,20.7
14375,18.1
14376,3.0
14377,5.8
14379,36.5
14380,25.6
14381,5.1
14383,23.9
14387,20.9
14390,6.3
14391,13.3
14394,12.2
14397,22.4
14399,8.6
14400,15.0
14402,19.6
14403,0.5
14404,1.2
14405,17.9
14406,21.7
14407,6.3
14410,17.5
14411,15.6
14414,54.5
14416,19.5
14418,9.7
14420,20.2
14421,13.1
14424,8.9
14427,31.3
14434,10.9
14436,25.2
14439,22.6
14440,23.6
14443,17.7
14444,23.8
14445,14.3
14449,21.6
14452,26.2
14455,4.0
14459,22.1
14464,26.0
14465,-12.4
14468,5.7
14473,16.4
14475,3.8
14476,8.4
14477,25.0
14478,33.9
14479,8.9
14480,11.4
14489,7.1
14490,13.3
14491,21.7
14492,18.2
14496,4.8
14497,14.5
14498,22.8
14501,16.4
14502,21.9
14503,-2.1
14504,23.5
14506,21.6
14508,21.6
14510,22.6
14511,23.3
14512,23.5
14515,2.8
14516,51.9
14518,18.3
14519,4.7
14520,4.9
14522,21.1
14528,28.8
14529,3.2
14533,14.1
14535,6.1
14536,15.6
14538,9.3
14540,15.9
14541,2.5
14543,5.4
14544,20.1
14547,6.5
14551,6.1
14553,49.3
14556,8.2
14558,5.7
14563,1.4
14565,21.0
14567,6.3
14568,23.3
14569,20.8
14570,15.5
14574,13.6
14576,19.2
14577,20.2
14578,33.9
14579,16.2
14581,16.9
14582,11.1
14587,17.2
14588,9.4
14590,13.3
14591,20.5
14592,14.0
14593,3.5
14594,7.2
14600,19.0
14603,-4.7
14607,14.6
14608,19.5
14609,15.7
14610,4.6
14611,2.8
14615,51.9
14618,12.6
14620,20.2
14622,4.9
14623,16.9
14624,19.8
14625,2.4
14627,28.8
14628,10.4
14632,1.7
14634,22.8
14636,5.6
14639,16.2
14640,5.0
14641,13.3
14643,11.1
14645,0.7
14646,18.0
14649,3.1
14651,17.1
14653,49.3
14654,18.4
14655,25.3
14656,18.4
14657,4.7
14658,3.4
14660,4.5
14661,4.4
14665,23.6
14666,22.1
14667,7.0
14670,17.9
14672,13.7
14675,20.6
14678,31.3
14680,18.8
14682,21.1
14685,1.6
14686,17.5
14688,6.4
14690,10.8
14691,19.1
14701,11.3
14702,8.0
14703,-4.7
14705,0.4
14708,23.2
14715,49.3
14716,2.6
14720,20.6
14722,7.5
14724,4.4
14725,19.8
14728,28.8
14729,14.4
14732,22.2
14733,4.0
14738,25.6
14739,0.8
14740,13.3
14741,18.0
14743,6.4
14744,21.8
14746,9.6
14749,18.1
14751,8.0
14752,51.9
14753,10.7
14756,18.2
14758,24.4
14759,3.1
14761,19.1
14762,11.1
14765,28.8
14767,1.7
14768,8.7
14769,25.7
14770,0.2
14772,20.9
14774,7.4
14775,8.0
14778,31.3
14781,9.1
14784,16.1
14787,16.1
14790,10.8
14792,1.7
14793,5.0
14796,1.0
14798,8.1
14801,16.5
14802,-7.2
14804,7.8
14805,8.4
14806,2.4
14807,16.5
14810,1.5
14812,23.6
14814,4.7
14815,49.3
14816,22.4
14823,17.4
14825,21.4
14826,1.8
14827,26.2
14834,16.7
14836,8.3
14837,8.3
14838,6.9
14840,13.3
14842,19.5
14843,15.4
14844,4.6
14845,16.5
14848,4.5
14849,12.5
14850,18.5
14851,11.3
14853,51.9
14854,17.3
14857,26.0
14859,15.6
14861,20.2
14862,14.8
14863,6.1
14864,14.0
14865,28.8
14868,2.4
14869,6.5
14871,21.7
14873,16.3
14876,14.1
14877,28.8
14878,19.6
14880,15.8
14885,0.4
14886,16.1
14887,6.0
14889,10.8
14893,20.6
14898,3.3
14901,17.0
14902,22.3
14903,-7.2
14905,7.6
14909,9.8
14913,17.5
14914,13.3
14915,46.8
14919,4.9
14922,10.7
14927,23.6
14932,5.2
14940,10.8
14941,7.8
14942,13.5
14943,15.7
14949,24.8
14952,54.5
14953,6.7
14954,12.3
14956,2.7
14963,24.9
14964,31.3
14966,13.7
14968,11.3
14971,15.9
14974,19.0
14976,13.2
14977,20.2
14978,28.8
14982,9.4
14983,7.5
14984,7.4
14987,18.9
14990,8.2
14991,4.6
14993,24.5
14996,24.6
14999,14.4
15000,8.9
15001,-2.1
15002,11.7
15006,5.3
15008,21.4
15011,0.6
15012,22.4
15013,49.3
15014,4.2
15018,19.7
15022,14.5
15023,23.5
15026,31.3
15027,13.6
15028,16.2
15032,9.7
15033,7.1
15034,25.6
15037,12.5
15039,18.5
15041,16.4
15042,0.2
15044,14.8
15046,21.0
15048,15.7
15050,25.0
15051,49.3
15053,7.4
15055,5.4
15056,15.6
15058,21.8
15059,12.2
15064,18.5
15065,8.5
15069,6.7
15070,3.2
15071,14.3
15072,5.2
15073,1.0
15076,33.9
15080,15.4
15081,15.3
15082,7.1
15084,14.3
15085,24.7
15087,5.5
15088,10.8
15091,7.1
15094,7.4
15096,19.0
15097,16.8
15099,17.3
15101,-2.1
15105,13.4
15106,11.3
15108,11.7
15110,14.0
15111,15.1
15112,11.9
15113,10.6
15114,51.9
15116,2.8
15117,18.2
15118,22.2
15119,0.6
15120,22.4
15121,22.2
15122,15.2
15124,2.2
15126,28.8
15128,6.8
15130,11.4
15133,2.1
15136,0.7
15138,13.3
15139,19.7
15140,20.8
15143,6.8
15147,24.7
15151,51.9
15152,18.6
15154,24.6
15155,2.7
15156,10.2
15157,21.6
15160,10.9
15163,23.6
15165,18.9
15166,0.0
15168,8.8
15172,14.1
15173,13.1
15174,24.5
15176,33.9
15182,17.8
15184,10.0
15185,17.2
15186,6.8
15188,10.8
15191,23.1
15192,17.8
15194,5.3
15195,18.1
15196,25.2
15198,9.6
15199,23.1
15200,25.6
15201,-4.7
15202,15.0
15203,8.5
15207,23.0
15208,25.8
15210,7.2
15213,49.3
15214,19.7
15216,0.4
15217,8.7
15218,10.6
15222,22.3
15224,15.0
15225,28.8
15231,24.7
15233,12.6
15235,8.1
15237,3.5
15239,13.3
15243,18.5
15244,23.4
15250,23.4
15251,49.3
15254,20.7
15255,11.3
15260,12.3
15262,18.3
15263,23.6
15264,15.3
15265,23.4
15270,20.8
15276,33.9
15278,3.2
15281,24.9
15284,22.0
15285,8.6
15288,13.3
15291,25.5
15292,17.7
15293,6.3
15294,8.4
15296,18.3
15297,12.8
15300,19.4
15301,-7.2
15303,19.6
15305,22.7
15306,7.8
15308,25.8
15310,1.9
15311,10.7
15313,49.3
15314,19.7
15317,13.4
15320,7.5
15321,6.4
15326,28.8
15331,19.5
15333,22.3
15334,22.6
15335,17.5
15336,5.1
15338,13.3
15343,13.3
15344,5.7
15345,18.7
15346,2.2
15348,20.0
15350,51.9
15351,22.1
15353,3.7
15354,14.3
15356,9.8
15357,8.7
15358,25.1
15359,15.9
15360,5.4
15361,19.7
15362,16.7
15363,26.2
15366,13.1
15369,9.6
15371,23.6
15374,23.5
15376,31.3
15377,12.7
15384,9.1
15385,9.8
15387,12.3
15388,8.2
15389,23.2
15390,10.1
15393,10.8
15394,1.3
15396,5.1
15399,3.0
15403,11.0
15408,6.6
15409,17.7
15410,5.5
15411,54.5
15412,15.5
15414,10.5
15421,20.3
15422,9.8
15423,31.3
15424,19.2
15425,6.4
15428,2.7
15431,1.9
15432,25.0
15433,5.1
15436,28.8
15437,9.6
15438,17.7
15439,2.3
15445,18.6
15449,15.9
15455,19.3
15456,1.2
15457,23.0
15461,-9.8
15464,21.8
15465,23.0
15467,7.8
15469,22.5
15470,12.0
15472,23.0
15473,44.2
15474,4.5
15475,10.8
15476,3.5
15485,23.6
15488,6.4
15491,10.2
15492,14.0
15494,18.1
15497,13.2
15498,5.6
15502,23.4
15504,14.4
15506,23.0
15510,49.3
15511,12.7
15515,12.9
15516,20.4
15520,25.1
15521,22.3
15522,23.6
15524,15.9
15525,17.8
15526,16.9
15528,24.5
15533,21.8
15534,18.5
15535,31.3
15537,3.6
15540,9.2
15542,4.9
15547,13.3
15551,19.5
15552,20.5
15553,22.8
15556,22.6
15557,25.0
15559,-2.1
15561,20.4
15563,12.4
15565,12.1
15566,14.5
15567,7.3
15568,6.9
15572,49.3
15578,3.9
15579,24.9
15582,12.5
15583,12.1
15584,2.1
15585,28.8
15586,15.5
15587,9.1
15588,7.7
15589,2.0
15590,19.6
15592,19.9
15596,16.9
15597,13.3
15598,5.4
15599,16.2
15603,1.5
15609,51.9
15610,0.8
15611,18.7
15614,14.8
15616,7.2
15617,0.9
15619,10.6
15621,10.4
15622,26.2
15624,18.9
15625,3.9
15626,19.4
15628,18.8
15630,8.9
15632,13.7
15633,24.9
15634,8.7
15635,33.9
15638,17.1
15641,9.5
15642,8.9
15646,4.7
15647,10.8
15652,5.2
15655,17.6
15656,24.5
15658,11.2
15660,-7.2
15664,0.8
15665,17.8
15666,23.8
15667,19.8
15668,22.4
15669,1.0
15670,12.1
15672,46.8
15676,22.2
15677,14.8
15679,2.0
15680,1.6
15681,6.4
15682,8.0
15684,28.8
15687,25.7
15689,17.3
15692,21.4
15693,2.0
15694,15.6
15695,19.9
15696,13.3
15697,13.0
15699,15.4
15700,10.4
15702,8.2
15703,2.1
15704,14.2
15705,17.8
15706,8.3
15708,5.6
15709,25.0
15710,51.9
15711,20.5
15714,7.2
15715,11.1
15717,8.1
15718,8.0
15722,28.8
15728,11.7
15730,24.0
15731,13.3
15732,19.9
15734,28.8
15735,10.6
15737,12.7
15738,0.0
15739,18.7
15741,19.1
15745,10.7
15747,10.8
15748,17.5
15750,22.3
15752,21.7
15755,14.2
15756,3.8
15758,16.0
15759,-4.7
15763,19.2
15769,18.5
15770,9.6
15771,8.9
15772,46.8
15777,15.6
15778,9.7
15784,26.2
15787,13.7
15794,16.1
15795,7.2
15796,4.3
15797,13.3
15798,6.0
15800,6.0
15803,19.0
15804,14.9
15805,4.8
15806,11.0
15807,7.4
15809,51.9
15811,0.5
15814,7.2
15816,12.5
15817,6.3
15818,13.9
15819,4.5
15820,4.0
15821,31.3
15822,6.6
15825,9.2
15827,5.6
15829,2.3
15831,10.1
15835,28.8
15836,0.8
15837,12.6
15840,11.7
15843,6.3
15847,10.8
15849,14.3
15852,21.8
15853,6.6
15854,19.1
15855,13.0
15858,4.4
15859,-9.8
15860,11.8
15862,22.5
15865,21.5
15870,0.1
15872,46.8
15873,8.5
15874,6.8
15876,2.7
15877,24.2
15878,19.4
15880,17.5
15884,26.2
15888,23.8
15890,5.9
15891,13.1
15893,16.8
15896,8.2
15898,21.8
15900,25.8
15904,14.0
15905,19.4
15906,18.2
15907,22.3
15908,46.8
15911,10.8
15912,24.1
15914,22.5
15921,18.5
15923,12.5
15925,2.5
15928,2.3
15929,5.3
15932,9.5
15933,36.5
15936,13.1
15938,4.9
15940,3.7
15941,13.4
15942,5.1
15943,23.4
15945,13.3
15948,25.2
15951,20.1
15953,13.9
15954,2.0
15955,5.5
15958,-2.1
15962,16.2
15971,51.9
15972,13.7
15973,14.0
15977,16.6
15983,31.3
15985,18.0
15986,12.7
15988,15.7
15991,8.9
15995,15.9
15996,16.2
15997,16.1
16006,21.0
16008,49.3
16009,13.6
16011,18.4
16012,17.6
16015,25.3
16016,23.8
16017,25.2
16020,21.0
16024,14.4
16032,9.8
16033,33.9
16038,9.4
16039,13.5
16042,23.1
16045,22.5
16046,13.3
16048,9.8
16050,9.0
16051,16.1
16053,5.6
16058,-4.7
16059,5.3
16060,22.2
16062,15.3
16064,8.1
16066,19.8
16069,14.9
16070,51.9
16072,14.2
16074,18.6
16078,1.1
16079,1.4
16080,5.1
16081,13.9
16082,28.8
16083,21.3
16087,22.5
16088,4.9
16095,15.9
16097,3.3
16098,15.8
16099,21.2
16101,8.1
16102,4.1
16103,17.9
16106,22.8
16108,51.9
16110,14.9
16111,19.4
16114,6.3
16116,19.8
16120,23.6
16122,1.4
16123,15.3
16124,24.0
16125,4.5
16126,13.4
16131,4.0
16133,33.9
16141,23.5
16143,7.7
16145,10.8
16152,25.7
16153,7.7
16157,-4.7
16161,10.4
16163,5.1
16166,2.2
16167,22.9
16169,9.3
16170,5.1
16171,49.3
16172,1.4
16173,1.6
16175,5.8
16177,4.9
16179,21.0
16180,7.7
16183,31.3
16184,11.7
16185,13.9
16187,17.5
16189,2.6
16190,1.2
16193,26.0
16195,13.3
16196,19.3
16197,9.4
16198,14.3
16199,17.3
16204,8.1
16207,51.9
16210,11.9
16214,19.3
16218,18.4
16219,6.2
16220,26.2
16221,20.8
16222,8.5
16223,23.0
16225,3.1
16226,14.5
16227,25.3
16228,15.5
16229,2.6
16231,10.6
16233,31.3
16235,16.0
16236,23.5
16240,6.9
16241,4.0
16245,8.2
16246,10.8
16248,17.8
16250,24.3
16253,23.9
16255,20.9
16256,0.6
16257,3.0
16259,25.3
16261,23.9
16262,19.5
16263,25.5
16265,9.9
16268,54.5
16273,16.0
16275,0.4
16277,23.3
16278,23.1
16280,28.8
16284,22.1
16286,18.9
16287,16.5
16288,4.2
16292,28.8
16293,6.5
16294,20.8
16301,3.2
16306,13.3
16307,13.9
16308,10.9
16309,13.1
16310,3.3
16313,17.9
16315,16.5
16317,13.0
16318,-9.8
16320,24.1
16321,10.5
16324,16.9
16327,9.9
16329,16.1
16330,46.8
16332,20.3
16333,24.8
16334,0.8
16337,5.0
16338,7.0
16339,14.9
16342,24.2
16343,23.6
16344,2.2
16347,0.1
16348,9.0
16353,6.0
16355,8.2
16358,17.2
16360,16.5
16363,24.0
16364,24.6
16365,9.1
16367,46.8
16369,3.4
16371,3.4
16374,16.3
16376,1.3
16378,5.2
16379,21.0
16380,3.8
16383,1.2
16385,16.8
16389,12.0
16390,22.0
16391,14.5
16392,33.9
16396,16.0
16399,19.1
16400,6.6
16401,5.0
16402,12.0
16403,3.2
16404,13.3
16405,15.9
16406,2.3
16408,8.7
16411,23.4
16414,21.1
16415,8.6
16416,-2.1
16417,25.9
16418,23.0
16422,20.9
16424,0.6
16426,24.2
16427,23.8
16429,51.9
16435,24.6
16436,10.4
16437,21.0
16438,1.1
16439,14.4
16442,28.8
16445,4.5
16447,24.3
16448,4.7
16452,0.3
16454,13.3
16455,20.4
16456,22.0
16457,23.0
16458,6.9
16460,24.8
16461,10.4
16462,25.5
16466,49.3
16469,25.1
16470,1.1
16471,15.1
16474,6.7
16475,2.2
16476,13.1
16478,18.9
16479,23.6
16480,13.1
16482,11.3
16483,25.0
16487,6.7
16491,31.3
16492,0.9
16493,23.4
16494,8.6
16497,21.9
16498,11.2
16500,3.5
16501,13.4
16504,10.8
16505,12.8
16506,13.2
16510,13.3
16512,18.9
16515,9.9
16516,11.1
16517,-4.7
16518,25.5
16523,25.4
16525,16.2
16527,6.2
16529,49.3
16531,5.4
16533,17.1
16535,1.4
16541,28.8
16545,16.8
16550,23.0
16551,3.6
16553,13.3
16554,15.4
16556,23.0
16558,25.8
16560,20.8
16561,22.6
16564,14.5
16567,51.9
16575,0.2
16578,7.3
16579,26.2
16582,21.6
16584,7.2
16585,19.6
16587,23.5
16588,2.1
16590,15.0
16591,31.3
16593,0.4
16594,13.2
16595,5.4
16597,3.2
16598,18.7
16600,6.7
16601,25.9
16603,15.3
16604,10.8
16605,25.7
16609,8.4
16611,6.4
16612,4.4
16613,18.7
16615,7.5
16616,-4.7
16617,1.9
16621,18.5
16622,3.2
16623,11.9
16624,14.6
16626,1.2
16627,9.4
16628,46.8
16629,8.0
16637,3.3
16641,6.2
16642,28.8
16643,9.3
16645,2.4
16648,19.1
16649,12.3
16650,16.6
16652,21.3
16653,8.6
16654,13.3
16657,5.7
16658,17.1
16664,10.2
16665,0.2
16666,54.5
16671,14.5
16674,22.5
16675,19.7
16678,28.8
16679,10.5
16680,16.3
16681,19.5
16682,10.8
16683,20.8
16686,9.9
16689,17.2
16691,31.3
16692,15.4
16693,4.3
16694,20.1
16695,24.4
16697,13.9
16699,4.8
16704,8.2
16705,23.0
16706,13.7
16709,4.3
16711,13.9
16714,0.0
16715,0.5
16716,19.9
16727,54.5
16728,13.7
16732,4.0
16736,9.7
16737,1.1
16738,23.4
16739,31.3
16741,13.4
16745,11.1
16746,18.9
16747,17.7
16749,21.6
16751,26.2
16754,12.6
16758,10.6
16759,12.9
16762,0.5
16763,18.5
16764,24.7
16765,7.2
16766,20.8
16768,5.7
16777,-9.8
16778,25.3
16779,19.1
16783,14.9
16787,21.6
16789,41.6
16790,12.3
16793,3.8
16794,6.0
16796,16.5
16799,2.1
16801,21.0
16802,12.4
16805,23.3
16808,17.8
16812,18.4
16813,15.6
16814,5.6
16816,4.1
16819,13.1
16822,16.2
16825,51.9
16828,7.1
16829,18.4
16832,25.1
16833,2.3
16834,17.8
16835,18.3
16836,7.6
16837,13.7
16838,23.6
16839,17.8
16840,25.6
16844,4.1
16848,11.5
16849,19.8
16850,33.9
16856,21.8
16857,16.9
16858,20.5
16859,16.1
16860,11.0
16862,8.7
16863,10.8
16864,7.0
16865,10.6
16866,20.5
16869,1.9
16870,9.3
16875,-4.7
16882,16.7
16883,8.1
16886,2.9
16887,49.3
16893,10.5
16894,13.8
16895,11.1
16897,24.3
16901,28.8
16902,0.2
16904,21.0
16906,14.7
16913,13.3
16916,5.4
16917,19.1
16918,21.3
16920,1.6
16921,2.9
16923,20.4
16925,51.9
16927,21.8
16928,2.2
16930,19.1
16931,15.0
16933,17.0
16934,4.0
16937,28.8
16938,24.0
16940,3.8
16941,13.6
16942,19.7
16946,20.6
16947,5.6
16948,20.1
16950,31.3
16951,15.6
16953,12.5
16955,10.7
16956,1.3
16959,16.3
16962,10.8
16964,19.9
16970,11.3
16972,18.0
16973,24.8
16974,20.9
16975,-4.7
16976,22.7
16977,25.2
16980,7.1
16984,20.6
16987,5.1
16988,46.8
16990,7.8
16993,0.1
16997,21.8
16998,8.7
16999,5.7
17000,28.8
17002,19.4
17006,9.7
17011,22.9
17012,10.8
17019,10.4
17021,25.7
17025,54.5
17026,12.6
17029,24.1
17030,8.5
17032,7.1
17034,22.9
17036,9.0
17037,15.2
17038,26.2
17039,23.2
17050,28.8
17051,1.1
17054,23.2
17056,12.6
17058,7.0
17059,19.4
17060,25.8
17062,8.2
17063,16.5
17067,3.6
17068,3.5
17072,16.4
17073,19.5
17074,0.5
17075,10.3
17078,18.1
17079,20.6
17081,16.2
17082,1.6
17085,54.5
17089,15.6
17090,4.0
17094,13.8
17097,25.5
17098,31.3
17100,10.6
17101,19.2
17102,24.1
17104,4.0
17105,13.0
17106,19.2
17107,4.4
17108,2.2
17111,26.2
17112,22.9
17116,9.3
17117,8.3
17118,23.0
17119,20.4
17120,21.8
17121,5.7
17123,21.0
17126,6.4
17132,0.5
17135,-9.8
17136,12.9
17139,8.8
17142,8.3
17146,3.6
17147,44.2
17148,23.8
17151,10.0
17152,10.8
17153,5.7
17154,15.8
17155,10.3
17156,16.7
17157,6.9
17158,19.5
17160,23.6
17161,0.1
17162,14.6
17164,20.2
17166,0.6
17167,12.5
17169,8.9
17171,17.3
17173,5.6
17174,23.2
17177,18.1
17178,24.4
17182,15.8
17183,1.7
17184,51.9
17186,12.6
17191,9.6
17195,4.0
17197,26.2
17203,17.6
17207,7.2
17208,2.5
17209,31.3
17211,8.0
17215,20.3
17216,8.8
17221,10.8
17222,17.5
17227,11.2
17228,7.2
17229,14.1
17230,13.5
17231,17.5
17232,6.4
17233,20.3
17234,-4.7
17239,8.7
17240,14.8
17242,7.1
17244,11.6
17245,9.1
17247,49.3
17249,20.3
17253,15.1
17254,1.0
17256,0.5
17257,8.5
17259,28.8
17261,18.9
17265,6.8
17266,20.6
17267,5.5
17269,21.7
17271,13.3
17272,5.8
17275,19.9
17280,14.0
17282,17.1
17283,2.6
17284,51.9
17286,22.4
17287,20.8
17288,4.5
17289,3.7
17291,0.1
17292,15.1
17296,28.8
17298,20.0
17301,22.3
17302,1.4
17303,10.5
17305,24.7
17307,6.3
17308,22.5
17309,31.3
17312,9.0
17316,9.4
17321,10.8
17329,12.1
17330,3.2
17332,1.3
17333,1.2
17334,-7.2
17336,3.2
17340,8.7
17342,6.6
17343,11.8
17344,5.9
17346,46.8
17350,7.5
17352,25.0
17355,6.3
17358,26.2
17362,1.9
17364,23.3
17366,6.8
17368,14.0
17370,3.5
17372,10.8
17373,9.2
17374,9.5
17375,25.0
17378,8.8
17380,6.6
17381,5.8
17383,7.0
17384,54.5
17385,25.1
17389,16.5
17390,8.0
17392,10.2
17394,8.5
17396,31.3
17397,16.9
17399,12.2
17400,16.1
17401,8.2
17403,6.2
17404,3.8
17405,9.5
17408,9.7
17409,31.3
17412,14.4
17416,21.7
17419,17.5
17421,10.8
17422,15.1
17423,25.2
17424,8.9
17425,19.4
17426,7.8
17429,12.7
17430,24.1
17433,2.5
17434,-7.2
17436,10.6
17439,1.2
17441,20.5
17444,23.7
17446,46.8
17450,20.1
17451,6.8
17458,16.6
17459,26.2
17460,20.2
17461,10.7
17465,6.2
17467,19.3
17468,17.0
17471,8.2
17472,25.0
17473,7.9
17477,0.0
17478,0.5
17480,2.6
17482,44.2
17485,10.4
17486,15.4
17488,25.4
17489,16.5
17492,2.5
17495,15.9
17496,19.0
17498,12.8
17504,15.3
17505,18.7
17506,21.0
17507,18.0
17508,36.5
17511,25.3
17512,3.2
17516,9.1
17518,8.3
17520,13.3
17521,8.8
17525,1.1
17526,18.5
17527,13.0
17529,7.4
17532,-2.1
17535,18.6
17540,10.5
17541,3.2
17542,0.7
17543,15.8
17545,51.9
17548,10.1
17549,0.5
17551,12.0
17552,16.0
17553,0.8
17554,22.0
17556,19.7
17557,31.3
17558,11.4
17562,0.9
17565,10.0
17568,14.9
17570,15.9
17571,16.8
17573,14.9
17578,12.7
17579,11.2
17581,15.5
17582,24.5
17583,46.8
17585,8.1
17587,17.7
17588,10.3
17589,18.3
17593,2.9
17595,21.0
17597,20.8
17603,15.0
17604,20.3
17605,17.3
17606,20.0
17607,33.9
17608,24.0
17611,11.0
17612,10.4
17613,6.5
17614,26.0
17617,20.6
17618,12.7
17619,13.3
17625,6.2
17626,22.9
17627,20.7
17628,18.3
17630,15.5
17633,0.5
17634,1.2
17636,1.5
17640,3.3
17641,13.9
17644,54.5
17645,5.6
17646,20.3
17647,25.1
17648,6.0
17649,9.0
17650,2.8
17655,5.0
17656,31.3
17658,0.2
17661,7.1
17665,1.2
17667,12.2
17668,22.3
17669,21.0
17670,4.3
17675,16.5
17677,25.4
17679,5.9
17681,33.9
17685,10.5
17689,17.5
17692,5.9
17693,-2.1
17697,12.5
17700,20.1
17702,14.8
17704,11.5
17706,21.3
17707,39.1
17709,1.6
17714,18.1
17715,13.5
17716,0.6
17717,18.3
17718,22.2
17719,21.0
17722,23.2
17724,0.3
17726,1.3
17729,11.9
17731,3.0
17733,18.7
17734,20.9
17737,20.1
17740,11.4
17742,51.9
17743,9.5
17744,21.2
17746,10.1
17747,0.7
17748,4.5
17749,22.1
17755,28.8
17758,4.7
17760,25.8
17763,10.8
17764,23.3
17765,12.2
17768,28.8
17769,15.4
17770,6.9
17774,20.2
17779,1.8
17780,8.2
17781,23.0
17784,22.5
17787,13.6
17789,11.2
17790,15.2
17791,2.3
17792,0.5
17793,3.3
17794,3.3
17795,5.1
17796,20.9
17798,2.0
17799,16.3
17800,4.3
17803,54.5
17806,22.5
17812,20.9
17814,2.1
17815,33.9
17816,2.8
17817,12.7
17819,16.7
17820,14.8
17821,25.4
17822,21.9
17824,21.1
17825,22.5
17826,10.3
17827,23.6
17828,19.7
17829,8.3
17830,25.1
17831,16.4
17832,7.1
17833,23.8
17834,18.2
17840,4.7
17841,26.2
17842,17.8
17843,8.2
17844,7.4
17845,2.0
17847,13.5
17848,20.7
17849,17.9
17850,17.3
17853,-12.4
17854,19.9
17855,18.1
17857,2.2
17858,9.9
17861,11.7
17866,33.9
17868,13.3
17875,0.5
17879,15.9
17881,8.8
17882,1.5
17885,14.4
17886,16.8
17890,14.0
17891,-2.1
17895,17.9
17896,5.6
17897,21.8
17900,18.8
17901,13.3
17902,20.3
17904,51.9
17905,14.0
17907,23.3
17908,22.4
17911,24.4
17912,6.8
17913,17.4
17914,4.3
17915,24.6
17916,28.8
17917,6.8
17918,13.6
17919,5.2
17920,8.4
17921,25.3
17924,23.4
17925,2.9
17927,11.5
17928,14.1
17929,15.9
17933,23.7
17934,0.3
17936,0.0
17938,12.5
17940,20.2
17941,49.3
17945,23.9
17946,12.2
17947,12.6
17952,19.0
17953,21.0
17955,0.3
17957,11.0
17958,17.3
17961,11.3
17963,25.3
17964,6.2
17965,12.1
17967,33.9
17968,3.8
17973,15.7
17975,0.1
17979,13.3
17982,10.9
17986,12.6
17987,21.8
17991,-2.1
17997,16.5
17998,4.8
18001,2.4
18003,49.3
18004,3.8
18005,7.3
18006,13.6
18007,13.4
18008,14.6
18009,17.1
18013,2.7
18015,10.1
18016,28.8
18017,14.9
18018,1.2
18019,23.0
18020,17.5
18028,13.3
18030,10.1
18031,7.7
18032,8.5
18035,10.4
18037,16.0
18039,12.1
18041,51.9
18043,2.8
18047,15.9
18050,10.4
18053,8.4
18054,23.6
18055,23.6
18056,19.6
18057,15.8
18060,0.5
18061,20.4
18062,6.5
18064,20.7
18065,0.9
18066,33.9
18068,14.7
18069,18.5
18072,12.7
18073,0.4
18076,7.8
18078,13.3
18080,8.7
18083,17.2
18084,3.0
18088,25.0
18089,11.7
18090,1.4
18091,-4.7
18095,14.4
18096,19.2
18098,9.7
18099,14.9
18101,4.9
18104,49.3
18106,25.8
18109,3.7
18111,10.2
18113,24.8
18115,12.0
18116,28.8
18119,4.6
18120,25.0
18123,24.0
18124,1.7
18126,6.5
18127,23.4
18128,13.3
18131,18.9
18133,20.3
18135,8.9
18136,4.5
18139,20.7
18141,54.5
18146,3.7
18147,2.9
18149,14.9
18153,26.2
18155,24.2
18156,0.7
18159,18.4
18162,11.8
18163,20.6
18166,33.9
18169,13.4
18170,3.7
18172,21.9
18177,15.7
18178,5.2
18179,8.2
18185,25.8
18186,14.2
18187,19.7
18188,21.5
18190,3.0
18196,5.0
18201,51.9
18202,21.8
18205,16.6
18207,0.1
18209,9.4
18210,6.2
18213,31.3
18214,20.9
18216,22.1
18219,12.5
18222,8.8
18223,6.6
18224,14.9
18225,20.1
18226,26.2
18229,18.4
18231,3.2
18233,22.8
18236,19.1
18238,7.9
18239,15.9
18240,23.6
18241,19.9
18242,3.9
18251,-9.8
18255,14.1
18257,4.9
18261,14.9
18264,44.2
18265,9.6
18267,24.7
18269,15.2
18270,12.5
18272,15.0
18274,24.2
18275,8.8
18276,23.6
18283,19.7
18285,15.7
18286,2.6
18288,8.2
18290,24.2
18292,2.1
18293,12.6
18295,0.7
18298,0.8
18299,10.7
18300,51.9
18301,11.7
18307,1.5
18311,14.9
18312,1.9
18313,21.0
18314,6.6
18315,24.3
18323,9.9
18324,8.6
18325,33.9
18327,25.0
18330,6.6
18331,21.0
18337,13.3
18339,19.8
18341,16.4
18342,15.4
18344,5.4
18345,11.7
18347,14.5
18348,3.0
18350,-4.7
18351,14.5
18362,19.9
18363,49.3
18364,10.5
18366,12.1
18375,28.8
18377,17.3
18378,22.3
18379,0.2
18381,7.3
18387,13.3
18388,8.1
18390,24.5
18393,17.1
18399,18.6
18400,51.9
18401,15.3
18406,18.6
18407,17.6
18412,26.2
18414,17.4
18415,6.1
18423,2.1
18424,33.9
18430,19.8
18432,19.8
18436,1.2
18437,5.9
18438,10.8
18439,6.9
18441,20.6
18442,19.5
18448,18.8
18450,-4.7
18461,11.7
18462,49.3
18463,23.7
18466,25.6
18467,23.3
18468,6.9
18472,22.6
18474,3.0
18475,28.8
18476,0.0
18477,14.1
18480,23.3
18482,22.3
18483,15.3
18484,18.2
18487,13.3
18489,25.6
18492,18.9
18494,5.6
18495,3.0
18500,51.9
18502,2.4
18504,9.0
18505,0.5
18507,8.9
18508,7.5
18512,28.8
18514,12.6
18516,11.8
18517,20.3
18525,28.8
18527,15.2
18534,24.4
18535,21.3
18537,8.2
18538,18.7
18541,7.8
18547,12.4
18548,0.5
18550,21.6
18559,2.7
18560,54.5
18562,1.3
18564,24.8
18566,15.0
18573,31.3
18574,10.2
18576,22.9
18578,9.4
18580,17.5
18582,9.1
18584,8.9
18585,26.2
18586,3.9
18590,14.7
18592,11.9
18595,4.3
18597,18.5
18599,17.8
18601,5.5
18604,13.2
18605,7.0
18606,25.7
18607,0.6
18608,5.3
18609,0.3
18610,-9.8
18614,13.2
18615,24.9
18617,9.9
18621,22.3
18622,44.2
18625,19.3
18630,0.3
18631,11.3
18633,18.8
18635,23.6
18638,19.0
18642,4.7
18643,22.5
18647,16.9
18648,8.2
18651,22.4
18652,1.8
18655,13.5
18658,24.2
18659,51.9
18660,20.3
18661,12.4
18663,16.2
18665,22.4
18667,23.0
18671,23.6
18672,23.1
18675,11.4
18679,9.7
18681,1.1
18682,17.0
18683,33.9
18684,14.8
18685,23.2
18686,10.6
18687,9.8
18689,12.9
18691,15.3
18694,22.9
18697,13.3
18700,21.0
18701,24.0
18702,1.8
18704,20.4
18705,1.4
18706,11.4
18709,-4.7
18710,6.2
18712,9.3
18713,3.4
18716,15.5
18717,4.5
18718,17.2
18720,0.8
18721,49.3
18723,14.0
18724,23.4
18726,23.8
18728,7.5
18734,28.8
18738,4.3
18742,5.0
18744,24.5
18745,6.3
18746,13.3
18747,20.5
18749,5.6
18750,15.3
18753,6.0
18757,7.3
18758,51.9
18759,0.6
18760,10.4
18761,18.4
18766,0.7
18770,22.1
18771,26.2
18774,24.6
18783,14.7
18784,31.3
18786,25.3
18787,18.4
18789,17.7
18792,0.1
18796,10.8
18799,15.9
18802,17.0
18805,5.0
18806,11.4
18807,22.9
18808,-7.2
18810,8.4
18812,3.7
18813,7.9
18818,3.6
18821,49.3
18822,8.9
18823,12.5
18825,21.7
18827,0.9
18829,9.9
18830,24.4
18831,6.6
18832,23.0
18834,26.2
18835,14.4
18836,7.5
18839,12.5
18840,24.6
18841,6.4
18843,3.0
18844,15.0
18845,19.6
18846,10.8
18849,20.8
18850,20.4
18851,6.7
18853,9.4
18857,25.0
18859,54.5
18861,23.5
18862,13.8
18864,0.2
18866,6.4
18867,11.5
18869,19.8
18871,28.8
18872,7.9
18873,3.4
18874,8.7
18875,0.8
18882,14.5
18883,28.8
18884,25.2
18885,11.0
18894,13.8
18896,8.2
18897,25.0
18899,14.2
18901,0.7
18903,4.7
18904,5.9
18908,0.5
18909,15.3
18910,3.4
18915,3.2
18919,54.5
18920,23.1
18924,23.8
18925,0.9
18926,23.4
18929,16.2
18930,18.6
18931,33.9
18934,8.5
18936,10.4
18937,10.8
18940,5.4
18941,15.4
18942,15.0
18943,3.4
18944,23.6
18945,21.1
18949,14.7
18950,20.2
18952,4.1
18953,23.0
18955,12.9
18956,21.0
18959,21.5
18962,18.2
18963,6.5
18964,4.1
18965,8.1
18966,9.4
18968,10.6
18969,-9.8
18970,15.0
18975,2.9
18979,23.8
18981,41.6
18982,15.0
18987,8.1
18988,3.0
18989,0.2
18991,5.1
18992,4.8
18994,21.0
18999,14.5
19000,0.2
19002,0.1
19006,5.6
19007,8.4
19008,18.2
19010,4.6
19014,12.7
19016,8.8
19017,51.9
19018,2.1
19020,24.4
19021,3.8
19024,4.1
19025,18.3
19028,19.6
19031,23.6
19032,2.1
19033,23.1
19034,9.4
19037,9.5
19041,7.1
19042,10.4
19043,31.3
19044,13.8
19045,16.1
19046,17.1
19047,18.1
19051,1.4
19053,23.1
19055,10.8
19056,10.6
19058,3.4
19059,12.1
19060,16.9
19062,0.5
19064,2.5
19067,-4.7
19069,4.4
19071,17.7
19072,14.8
19073,6.6
19077,4.4
19078,1.3
19080,49.3
19087,22.6
19090,10.4
19092,28.8
19095,12.5
19097,23.6
19101,8.9
19103,19.1
19104,24.2
19105,13.3
19107,20.9
19110,5.2
19111,14.9
19113,9.7
19114,24.8
19116,3.7
19117,6.2
19118,54.5
19121,14.4
19122,10.3
19123,18.4
19125,0.3
19128,1.3
19129,2.3
19130,26.2
19134,6.8
19135,11.6
19136,15.5
19138,6.0
19139,10.4
19142,31.3
19143,2.0
19146,19.3
19147,13.8
19150,13.0
19153,2.6
19154,10.8
19155,16.5
19156,0.2
19157,9.5
19158,18.8
19162,14.7
19163,12.9
19164,25.5
19165,25.4
19168,-7.2
19169,17.4
19172,0.7
19174,3.4
19177,1.9
19178,3.4
19180,46.8
19183,3.1
19185,14.6
19187,14.3
19188,18.7
19190,3.3
19192,26.2
19194,5.9
19196,3.9
19197,14.7
19199,21.9
19204,21.6
19205,10.8
19212,15.0
19216,22.1
19217,51.9
19221,19.6
19222,15.2
19223,13.1
19224,15.4
19225,2.7
19226,13.9
19229,24.4
19230,28.8
19231,23.6
19234,23.8
19236,21.1
19237,2.0
19238,21.9
19239,20.9
19241,16.8
19242,2.2
19243,28.8
19246,15.6
19247,25.3
19249,23.5
19252,12.1
19254,21.6
19255,8.2
19256,11.9
19258,18.1
19260,2.9
19263,20.6
19266,0.5
19267,8.1
19269,4.8
19274,14.6
19276,12.2
19277,54.5
19279,6.2
19281,10.7
19282,10.0
19284,9.0
19285,2.1
19286,24.1
19290,31.3
19291,6.2
19294,1.8
19296,7.8
19298,15.0
19300,25.4
19301,20.6
19302,12.2
19303,23.6
19307,11.7
19309,19.8
19312,16.8
19315,23.6
19317,18.4
19319,12.0
19322,4.5
19324,19.5
19327,7.7
19328,-12.4
19329,16.5
19333,5.1
19334,23.0
19337,22.4
19338,16.2
19339,12.0
19340,12.9
19341,36.5
19343,15.7
19344,22.5
19348,9.4
19349,2.9
19350,23.5
19352,19.6
19353,15.9
19354,22.1
19357,5.8
19364,13.5
19365,17.6
19366,-2.1
19368,1.1
19373,4.1
19375,23.8
19379,49.3
19380,1.2
19381,21.0
19387,7.0
19391,31.3
19392,13.9
19397,0.5
19401,7.7
19403,15.9
19406,7.6
19408,15.1
19409,10.9
19411,1.3
19416,46.8
19417,0.8
19419,1.3
19421,7.5
19422,15.6
19423,10.9
19424,9.2
19427,5.9
19429,21.0
19433,10.8
19434,7.5
19435,4.4
19437,9.9
19441,33.9
19442,20.3
19443,18.0
19448,3.6
19449,9.5
19450,15.4
19452,24.0
19453,13.3
19459,5.7
19463,20.3
19466,-2.1
19467,6.0
19473,15.5
19474,2.2
19476,24.9
19478,49.3
19480,24.0
19482,16.4
19483,1.5
19484,2.6
19485,8.6
19490,28.8
19494,12.1
19496,2.8
19500,18.5
19502,19.6
19503,4.8
19504,13.3
19510,4.7
19511,8.1
19513,1.7
19515,12.8
19516,51.9
19519,22.5
19524,10.9
19528,23.6
19529,25.2
19531,0.3
19533,0.3
19534,1.7
19535,6.9
19537,23.9
19538,20.7
19540,33.9
19541,5.7
19543,8.6
19544,13.7
19546,19.2
19553,10.8
19554,11.7
19556,8.0
19558,4.1
19559,14.0
19560,6.3
19566,-4.7
19568,20.6
19570,19.8
19572,19.8
19573,16.0
19574,17.8
19575,23.7
19577,12.5
19578,49.3
19580,12.4
19581,24.3
19584,25.6
19588,6.5
19589,15.5
19590,20.5
19591,28.8
19593,4.3
19595,20.0
19597,4.3
19598,7.8
19600,18.9
19602,6.1
19603,15.9
19604,8.4
19606,1.1
19609,5.3
19611,15.7
19612,0.4
19613,1.0
19614,25.3
19615,51.9
19618,1.4
19619,7.8
19621,11.8
19622,1.8
19623,21.9
19626,8.1
19627,3.8
19629,26.2
19631,13.1
19632,6.5
19633,19.2
19639,8.4
19641,31.3
19642,6.8
19644,24.4
19646,18.6
19648,7.4
19651,16.7
19652,3.2
19653,10.8
19657,16.1
19659,15.6
19661,18.8
19662,19.5
19663,19.1
19664,11.5
19665,-4.7
19668,9.5
19669,22.4
19670,24.6
19672,5.8
19677,5.1
19678,46.8
19679,24.9
19680,17.8
19681,10.4
19682,0.5
19684,8.3
19685,5.5
19689,20.2
19690,26.2
19693,15.3
19694,4.8
19697,25.8
19698,9.0
19699,13.3
19701,14.5
19702,5.8
19703,13.3
19705,11.9
19706,6.5
19708,20.8
19709,13.3
19711,23.2
19713,6.4
19715,24.3
19716,54.5
19719,6.0
19721,8.9
19722,16.4
19723,21.8
19726,5.4
19727,4.7
19728,28.8
19729,6.0
19730,8.1
19731,22.0
19732,4.0
19733,19.7
19734,24.3
19737,0.6
19739,14.8
19740,28.8
19741,9.7
19743,18.6
19744,11.9
19746,1.4
19752,10.8
19755,6.0
19759,1.2
19762,23.8
19763,10.4
19766,-7.2
19767,3.3
19768,21.4
19769,8.5
19774,21.3
19776,12.7
19777,2.3
19778,46.8
19779,24.6
19780,8.4
19782,22.3
19784,1.4
19786,15.3
19787,25.1
19789,16.5
19790,26.2
19791,18.2
19794,7.1
19797,4.0
19799,16.8
19800,17.9
19801,7.8
19803,10.8
19804,8.9
19806,7.9
19807,2.0
19808,16.1
19810,9.7
19812,9.7
19815,54.5
19817,2.3
19818,8.3
19820,13.3
19821,21.1
19825,24.5
19828,28.8
19830,20.0
19832,2.0
19833,2.4
19834,6.5
19836,25.4
19840,25.3
19841,28.8
19848,9.0
19849,0.6
19852,18.6
19853,8.2
19855,5.8
19856,17.9
19858,15.9
19860,6.6
19862,19.8
19863,1.8
19864,0.5
19865,18.5
19866,12.2
19868,8.7
19870,12.9
19871,19.7
19873,9.3
19875,54.5
19877,24.7
19888,31.3
19891,23.2
19892,10.2
19895,20.7
19897,4.5
19898,13.4
19901,26.2
19903,16.9
19904,25.5
19905,10.6
19906,0.5
19907,20.4
19909,3.1
19911,10.7
19912,22.0
19913,28.8
19915,1.9
19918,17.4
19919,13.9
19920,9.5
19922,24.7
19923,11.2
19925,8.2
19926,-9.8
19928,0.2
19930,20.3
19931,11.9
19932,24.4
19935,8.1
19936,7.5
19938,41.6
19939,1.4
19941,15.8
19944,17.1
19946,13.0
19948,9.3
19949,17.0
19950,21.0
19951,15.5
19952,12.0
19953,2.0
19954,4.9
19955,5.6
19956,25.1
19957,0.6
19959,24.3
19963,5.6
19964,1.1
19970,19.9
19974,1.0
19975,54.5
19977,1.1
19978,23.8
19979,19.9
19980,10.9
19982,2.5
19983,1.3
19985,5.6
19987,28.8
19988,3.9
19992,21.6
19993,13.6
19994,14.5
19995,14.0
19997,5.4
19998,7.3
19999,28.8
20003,25.3
20005,10.2
20007,3.0
20009,24.4
20012,10.8
20016,14.4
20017,3.0
20018,25.1
20019,12.3
20023,13.9
20024,-4.7
20025,9.2
20028,13.7
20029,17.8
20030,24.2
20032,24.2
20034,1.2
20036,9.1
20037,46.8
20039,0.9
20041,15.4
20042,8.7
20044,10.4
20046,14.5
20049,28.8
20055,19.7
20056,9.9
20061,4.6
20062,10.8
20065,0.9
20067,12.5
20068,4.1
20070,12.7
20071,21.4
20074,51.9
20075,18.8
20076,25.6
20078,2.9
20080,17.4
20081,22.5
20082,11.6
20083,16.4
20086,28.8
20087,11.9
20090,9.1
20094,7.4
20095,12.1
20096,5.8
20099,18.8
20100,28.8
20101,20.3
20102,24.9
20104,5.8
20105,20.0
20106,15.7
20110,24.8
20112,8.2
20115,13.5
20116,15.6
20117,16.3
20123,0.5
20124,14.8
20126,2.7
20128,6.6
20134,54.5
20135,25.4
20138,15.8
20144,5.3
20147,31.3
20149,12.0
20151,2.1
20153,10.1
20156,6.8
20157,0.9
20160,26.2
20161,11.3
20164,13.7
20165,18.8
20168,11.7
20172,23.6
20173,1.8
20174,14.6
20179,19.8
20182,23.2
20183,2.2
20184,7.9
20185,-9.8
20186,11.2
20188,9.1
20189,15.8
20192,9.5
20197,44.2
20199,10.5
20203,25.9
20207,6.5
20209,23.6
20211,19.5
20213,13.1
20214,23.8
20215,17.1
20218,5.4
20219,24.2
20220,0.4
20221,5.6
20222,0.8
20226,9.1
20228,21.7
20232,9.0
20233,8.6
20234,51.9
20237,20.6
20239,6.2
20242,12.2
20245,12.4
20246,26.2
20248,20.7
20250,0.5
20251,5.2
20254,9.8
20256,17.9
20257,12.5
20258,28.8
20259,15.4
20260,4.2
20263,10.8
20264,9.7
20265,14.2
20267,17.5
20268,0.3
20270,2.7
20271,8.2
20272,6.8
20274,1.5
20275,24.8
20277,24.8
20279,7.5
20280,8.4
20282,0.5
20285,17.1
20287,25.9
20288,7.7
20290,25.8
20291,13.2
20292,19.4
20294,54.5
20296,0.9
20299,14.7
20301,23.9
20302,21.9
20303,14.8
20305,12.9
20306,28.8
20310,16.4
20311,6.2
20313,13.3
20314,3.5
20315,9.8
20317,10.2
20319,26.2
20321,0.3
20323,20.8
20324,20.1
20325,6.5
20326,5.7
20327,17.5
20329,0.7
20331,13.3
20334,15.1
20336,7.6
20337,8.1
20343,-9.8
20344,16.0
20346,16.1
20349,5.9
20350,0.5
20352,18.0
20354,18.6
20355,2.8
20356,46.8
20359,25.8
20362,14.7
20366,16.7
20368,8.2
20369,23.6
20370,7.1
20372,19.6
20373,4.0
20374,16.1
20376,18.0
20377,9.3
20380,13.6
20381,10.8
20383,20.8
20386,4.1
20388,8.8
20389,11.8
20390,8.5
20391,10.5
20392,0.1
20393,54.5
20397,3.3
20398,1.0
20399,5.8
20400,24.8
20406,31.3
20407,1.0
20408,9.9
20409,12.2
20411,22.2
20412,25.4
20414,2.7
20415,9.3
20416,17.1
20417,13.5
20418,28.8
20419,19.2
20423,21.5
20424,2.7
20425,13.4
20428,16.4
20430,20.1
20431,23.6
20432,13.2
20436,23.6
20438,8.8
20440,10.7
20442,11.2
20444,-9.8
20446,18.5
20447,20.8
20449,22.1
20454,5.7
20455,3.3
20456,41.6
20460,13.7
20465,7.6
20466,7.2
20467,16.5
20468,23.6
20470,0.9
20473,14.5
20474,20.8
20478,10.8
20479,8.5
20481,5.6
20485,12.3
20491,15.9
20492,21.6
20493,51.9
20499,21.1
20504,22.2
20505,23.6
20509,7.3
20510,7.9
20515,0.4
20516,4.2
20517,31.3
20518,25.4
20519,18.0
20520,3.9
20522,14.0
20525,21.7
20527,5.0
20528,1.8
20529,22.6
20530,13.3
20532,6.1
20534,2.0
20535,9.5
20536,5.9
20538,1.9
20539,21.7
20542,-4.7
20543,2.9
20544,13.9
20545,18.1
20546,9.9
20547,9.9
20548,15.3
20550,3.2
20552,6.9
20554,49.3
20557,3.2
20559,19.8
20561,17.4
20562,10.6
20568,28.8
20569,10.0
20570,0.6
20571,11.8
20573,20.3
20575,2.4
20576,13.0
20577,21.7
20580,13.3
20582,3.2
20583,2.7
20586,15.1
20588,20.8
20592,51.9
20596,3.3
20600,8.2
20601,24.6
20603,24.9
20604,26.2
20605,17.6
20608,3.7
20612,7.9
20613,12.6
20615,14.6
20616,17.4
20617,31.3
20618,5.5
20621,1.6
20624,1.2
20625,6.8
20626,7.3
20628,5.1
20629,1.8
20630,10.8
20632,2.7
20635,24.5
20637,26.0
20642,-4.7
20643,14.6
20645,2.7
20646,0.3
20647,25.6
20651,24.0
20653,18.1
20654,6.0
20655,49.3
20657,8.2
20658,3.0
20660,22.7
20661,17.4
20667,28.8
20670,8.1
20671,11.7
20672,13.1
20673,10.8
20674,14.9
20675,7.1
20676,1.2
20679,10.8
20682,26.0
20683,10.0
20684,2.6
20685,17.2
20687,13.1
20692,54.5
20695,13.7
20697,1.8
20699,5.1
20703,6.8
20705,28.8
20706,21.0
20707,19.8
20709,10.1
20710,8.2
20712,3.3
20713,19.9
20716,11.9
20717,31.3
20718,17.2
20719,12.3
20721,7.0
20722,1.4
20723,18.9
20724,0.7
20726,5.6
20729,8.2
20731,25.8
20732,11.7
20735,6.7
20740,16.3
20741,3.0
20744,15.9
20745,25.2
20746,11.7
20748,15.7
20750,6.0
20751,15.8
20752,54.5
20754,18.4
20755,10.2
20758,25.2
20759,16.0
20760,2.3
20762,21.2
20763,10.5
20765,31.3
20767,7.8
20772,0.1
20774,10.0
20777,26.2
20779,5.8
20783,11.1
20784,21.0
20785,9.1
20790,21.0
20791,24.4
20796,18.3
20798,14.5
20801,9.0
20802,-12.4
20803,24.1
20805,10.3
20807,2.3
20810,21.7
20811,2.1
20812,25.9
20813,15.7
20815,39.1
20817,16.7
20818,7.7
20820,20.5
20824,4.3
20825,5.9
20826,1.0
20827,24.2
20828,0.6
20829,15.9
20830,7.3
20831,7.6
20832,13.5
20836,12.1
20837,7.8
20839,14.6
20840,20.1
20841,-2.1
20842,16.5
20843,21.2
20845,15.4
20846,13.2
20847,13.4
20848,12.1
20853,51.9
20854,23.4
20857,6.4
20858,21.0
20859,0.7
20860,1.4
20861,23.2
20863,20.7
20864,0.1
20866,31.3
20867,1.9
20868,12.6
20871,24.8
20872,22.4
20873,17.0
20874,8.1
20876,23.6
20877,15.5
20878,15.9
20883,21.0
20885,21.2
20888,24.3
20889,11.5
20890,49.3
20895,2.7
20898,24.2
20899,1.9
20901,2.8
20902,18.3
20903,21.0
20905,11.0
20911,1.4
20916,33.9
20919,0.9
20921,16.0
20922,4.4
20928,13.3
20930,2.4
20931,7.5
20932,2.2
20935,25.3
20936,9.3
20937,22.1
20940,-4.7
20942,11.0
20944,7.3
20946,6.0
20947,17.3
20953,49.3
20956,13.5
20958,17.3
20960,19.0
20961,25.6
20962,24.1
20966,31.3
20970,9.7
20972,4.2
20973,14.8
20977,2.8
20978,15.9
20981,20.2
20982,0.7
20986,5.5
20987,6.1
20988,6.3
20989,0.0
20990,51.9
20993,24.4
20995,1.4
20996,16.0
21000,20.7
21003,23.6
21006,15.2
21008,10.0
21010,10.5
21011,9.0
21012,18.7
21013,18.7
21015,31.3
21016,24.9
21017,15.9
21018,16.8
21019,11.9
21022,2.7
21023,11.8
21024,25.0
21027,22.6
21028,10.8
21030,19.8
21038,18.1
21039,4.0
21041,-4.7
21042,13.2
21043,18.7
21045,4.0
21046,23.9
21048,20.6
21051,21.1
21053,49.3
21054,21.4
21055,22.0
21056,9.8
21058,8.6
21059,17.2
21062,21.7
21065,28.8
21066,4.0
21067,12.5
21068,21.1
21069,14.4
21071,17.3
21072,6.8
21073,2.0
21074,24.1
21077,6.3
21078,13.3
21084,15.0
21085,20.6
21090,51.9
21092,23.3
21094,12.5
21095,15.8
21099,11.4
21103,26.2
21105,0.9
21106,0.2
21107,9.5
21111,16.7
21114,12.4
21115,31.3
21118,6.0
21119,8.3
21120,15.8
21121,3.1
21122,18.6
21124,10.1
21126,8.8
21127,10.2
21128,10.8
21129,21.1
21130,14.5
21134,4.9
21136,22.8
21137,19.5
21139,10.2
21140,-4.7
21143,10.4
21147,21.3
21151,13.9
21152,46.8
21153,15.5
21156,0.4
21157,24.4
21159,17.2
21160,16.3
21164,8.5
21165,12.6
21166,26.2
21169,22.0
21170,6.0
21172,18.7
21173,6.5
21174,3.4
21176,18.1
21177,25.5
21178,10.8
21182,18.8
21183,25.6
21185,10.3
21188,19.4
21190,51.9
21199,25.1
21202,28.8
21205,9.4
21208,3.3
21212,21.7
21214,16.9
21215,28.8
21216,8.6
21223,16.1
21226,4.5
21228,8.2
21229,25.6
21233,0.2
21236,17.3
21239,0.5
21240,20.4
21241,20.7
21244,2.9
21248,20.0
21249,1.4
21250,21.3
21251,54.5
21253,11.0
21254,10.8
21256,22.0
21261,12.0
21263,31.3
21264,14.6
21271,20.5
21273,25.2
21275,26.2
21283,19.4
21287,21.0
21292,16.3
21293,2.1
21294,24.6
21297,22.2
21298,0.0
21299,17.5
21300,14.5
21301,-9.8
21302,3.6
21307,19.9
21310,13.8
21312,7.9
21313,41.6
21314,25.3
21315,21.6
21317,16.2
21319,19.9
21325,23.6
21332,17.9
21334,23.1
21337,18.4
21338,5.6
21339,14.6
21342,10.5
21344,3.3
21349,51.9
21350,17.5
21353,5.7
21354,1.6
21356,17.3
21362,26.2
21364,13.8
21365,12.8
21366,23.1
21368,25.5
21371,24.7
21373,6.4
21374,31.3
21376,25.8
21379,22.3
21380,24.4
21381,25.2
21383,18.8
21386,1.8
21387,13.3
21391,3.6
21394,25.7
21396,20.1
21398,13.8
21399,-2.1
21400,3.5
21401,3.6
21402,10.7
21405,19.5
21411,46.8
21417,13.7
21418,25.6
21419,21.4
21420,3.2
21422,10.0
21423,16.6
21425,28.8
21426,16.3
21428,18.7
21429,21.5
21431,4.0
21432,10.7
21435,19.9
21437,13.3
21439,17.9
21440,11.3
21444,6.2
21445,13.2
21447,8.2
21448,16.3
21449,51.9
21451,15.4
21452,10.8
21454,12.0
21455,7.1
21456,21.8
21457,3.8
21461,20.3
21462,26.2
21464,17.3
21465,18.5
21468,19.1
21470,17.1
21472,25.4
21474,31.3
21475,3.6
21476,23.4
21477,3.9
21479,23.1
21480,20.9
21481,20.9
21482,23.7
21485,4.5
21486,10.8
21487,23.1
21490,6.3
21494,15.2
21495,15.7
21496,16.2
21497,8.3
21498,22.4
21499,-4.7
21500,24.3
21502,8.1
21503,23.6
21504,10.8
21505,6.7
21506,7.8
21507,13.5
21508,19.8
21510,6.5
21511,24.0
21512,49.3
21514,16.4
21516,19.9
21517,19.0
21518,11.3
21523,2.9
21524,26.2
21526,25.3
21528,3.0
21532,8.0
21535,25.2
21536,10.8
21546,5.7
21547,11.1
21549,51.9
21551,0.6
21552,18.4
21554,0.6
21558,14.6
21559,12.5
21561,21.9
21562,28.8
21563,8.2
21564,9.0
21565,17.5
21568,20.3
21569,1.5
21573,16.6
21574,28.8
21576,10.1
21579,23.1
21580,20.3
21583,13.8
21586,10.8
21587,24.2
21588,1.4
21592,24.0
21594,15.0
21595,17.9
21598,0.4
21599,-9.8
21600,19.0
21603,24.8
21606,24.8
21608,12.2
21611,46.8
21614,3.0
21616,4.6
21620,18.8
21621,10.3
21623,18.8
21624,23.6
21625,5.6
21627,4.9
21629,13.2
21631,1.9
21632,20.7
21633,4.6
21635,8.3
21637,8.2
21639,17.1
21641,15.3
21643,24.7
21644,12.2
21645,5.9
21646,11.8
21647,23.8
21648,49.3
21649,14.9
21653,15.6
21660,18.5
21662,9.3
21664,12.7
21665,15.1
21670,19.9
21671,1.8
21672,33.9
21675,25.0
21676,21.2
21677,6.6
21679,11.7
21681,17.7
21682,1.9
21683,12.5
21684,5.6
21685,15.9
21687,10.2
21690,24.0
21691,0.3
21692,18.5
21693,11.1
21698,-2.1
21700,25.0
21701,10.2
21704,17.0
21709,22.4
21710,51.9
21711,2.7
21713,4.2
21714,24.6
21715,7.6
21720,22.1
21721,5.3
21722,0.8
21723,31.3
21726,0.4
21728,1.1
21731,10.3
21733,6.5
21735,15.9
21737,19.3
21740,13.2
21742,3.8
21743,25.1
21747,49.3
21748,16.3
21749,25.8
21752,14.5
21756,13.3
21758,5.8
21760,23.6
21761,21.0
21762,22.5
21764,20.8
21765,1.0
21767,12.3
21768,18.6
21770,13.6
21771,2.2
21772,16.6
21773,33.9
21774,6.0
21776,11.1
21777,9.2
21783,23.9
21785,13.3
21788,14.2
21791,3.9
21793,0.1
21795,3.5
21797,-4.7
21806,1.7
21807,11.7
21810,49.3
21811,0.6
21812,7.7
21813,14.2
21814,6.6
21815,17.5
21816,11.4
21817,18.6
21818,12.7
21820,18.2
21821,19.8
21823,31.3
21824,5.4
21826,10.3
21827,1.7
21829,16.2
21832,19.0
21833,9.2
21834,2.4
21835,13.3
21838,18.4
21839,0.5
21844,9.4
21847,2.1
21848,51.9
21850,13.3
21851,16.1
21852,17.9
21857,20.0
21860,23.6
21862,18.5
21866,3.3
21871,22.8
21872,31.3
21873,5.4
21875,1.2
21878,5.5
21879,0.3
21880,11.7
21884,10.8
21886,3.4
21887,8.4
21891,4.0
21892,17.0
21895,6.0
21897,18.3
21898,-4.7
21899,5.0
21900,7.1
21901,3.7
21903,21.3
21909,7.1
21910,49.3
21913,25.9
21915,8.6
21918,5.3
21922,28.8
21925,3.0
21927,11.3
21929,14.9
21930,22.1
21934,14.6
21935,10.8
21939,22.5
21942,2.9
21944,10.8
21945,10.3
21947,51.9
21950,3.2
21954,21.8
21955,20.4
21956,15.9
21957,21.7
21960,26.2
21961,12.3
21967,17.6
21968,0.2
21970,5.4
21972,31.3
21974,0.0
21976,9.7
21977,23.7
21979,1.7
21983,0.5
21984,2.6
21985,10.8
21988,10.2
21990,15.1
21992,0.1
21995,17.8
21997,-7.2
22005,7.5
22008,20.5
22009,49.3
22010,8.6
22012,0.7
22017,8.6
22018,17.1
22019,12.7
22021,7.8
22022,28.8
22023,15.1
22025,10.7
22029,18.0
22030,13.4
22033,15.2
22035,10.8
22037,7.7
22039,3.1
22043,0.2
22047,51.9
22051,21.3
22053,17.0
22054,25.1
22055,10.6
22057,14.9
22058,18.3
22059,2.6
22060,28.8
22062,18.7
22063,5.1
22065,8.6
22069,4.2
22071,8.6
22072,28.8
22073,4.2
22074,6.4
22075,4.2
22076,17.2
22078,25.5
22080,24.3
22082,8.4
22084,8.2
22087,21.8
22088,5.0
22089,11.9
22090,11.6
22091,7.9
22095,9.1
22096,0.5
22098,7.0
22101,1.5
22108,54.5
22110,18.2
22113,18.5
22114,12.9
22116,10.5
22119,24.4
22120,31.3
22122,19.4
22123,17.6
22124,15.5
22128,1.2
22132,26.2
22133,2.8
22136,3.0
22143,8.6
22144,4.1
22145,23.6
22146,8.4
22147,13.2
22148,11.3
22150,4.7
22157,11.6
22158,-12.4
22159,14.1
22160,14.0
22161,10.4
22163,5.7
22165,25.6
22166,7.2
22170,15.3
22171,36.5
22174,25.2
22175,0.5
22177,23.6
22178,9.3
22181,23.5
22182,23.2
22183,13.3
22188,13.2
22189,18.4
22193,15.4
22196,-2.1
22199,3.1
22201,14.1
22202,1.8
22204,23.1
22206,21.9
22207,21.5
22208,46.8
22211,3.4
22212,15.8
22215,23.2
22217,9.6
22219,18.3
22220,26.2
22221,25.0
22223,20.0
22224,17.2
22225,9.5
22230,22.9
22232,1.2
22233,19.1
22234,10.8
22237,9.2
22238,10.6
22239,8.4
22244,12.9
22246,39.1
22248,15.8
22249,22.2
22252,2.8
22253,4.9
22256,11.7
22258,3.0
22259,15.4
22263,14.3
22265,0.5
22269,31.3
22270,7.9
22273,8.6
22275,10.7
22277,3.7
22278,22.7
22280,8.5
22281,22.6
22282,8.2
22283,2.7
22293,25.9
22294,-2.1
22295,0.0
22297,14.8
22299,23.2
22300,9.3
22301,13.8
22306,39.1
22308,12.1
22309,24.7
22310,20.7
22311,2.8
22312,9.1
22314,24.1
22317,4.4
22319,5.6
22320,3.0
22321,5.3
22324,9.9
22325,13.6
22326,20.2
22330,21.0
22331,1.6
22335,23.8
22338,5.1
22342,3.0
22343,11.9
22345,17.7
22346,1.8
22348,17.5
22351,16.5
22353,-9.8
22355,23.1
22356,15.3
22357,18.8
22363,0.2
22365,25.7
22366,12.9
22367,36.5
22370,10.2
22371,2.8
22372,3.0
22373,6.4
22375,21.8
22376,15.7
22377,16.6
22379,8.2
22380,15.0
22383,22.4
22385,15.5
22388,12.1
22389,16.5
22390,13.3
22391,24.2
22398,18.1
22402,24.3
22403,-7.2
22404,23.7
22405,22.3
22410,5.7
22413,13.5
22414,12.6
22415,-20.1
22417,14.1
22420,13.5
22422,9.2
22423,21.5
22424,13.3
22427,19.1
22428,25.0
22429,21.0
22430,14.6
22431,16.0
22434,10.3
22435,17.0
22436,14.2
22438,19.9
22439,20.2
22441,3.0
22442,25.2
22443,12.2
22444,18.1
22449,1.3
22451,23.6
22452,14.8
22453,-4.7
22456,16.8
22458,12.2
22459,12.9
22460,7.4
22461,15.1
22462,15.9
22463,20.4
22464,18.9
22465,28.8
22470,21.4
22471,20.3
22474,8.1
22476,17.8
22477,-7.2
22478,16.7
22481,6.6
22483,20.8
22487,7.2
22488,22.1
22489,1.1
22491,8.2
22493,10.5
22494,23.5
22495,4.4
22496,11.1
22497,10.0
22500,20.1
22501,8.9
22502,0.5
22506,17.0
22507,7.7
22508,11.8
22512,9.2
22513,-12.4
22514,14.8
22515,17.9
22516,0.8
22517,20.8
22518,6.7
22520,8.9
22521,17.0
22522,13.4
22526,31.3
22527,23.9
22529,13.4
22534,24.8
22536,16.6
22538,22.4
22539,5.6
22542,19.3
22545,12.0
22550,5.6
22551,15.8
22553,20.4
22555,25.1
22557,9.5
22560,22.2
22561,11.7
22562,-7.2
22563,19.7
22564,24.0
22565,12.9
22568,10.8
22571,25.6
22575,-22.7
22576,14.4
22577,9.8
22582,13.7
22584,25.9
22586,5.7
22587,8.0
22588,21.0
22591,1.0
22592,21.9
22594,18.0
22598,1.5
22599,11.5
22600,3.0
22601,17.4
22604,21.0
22611,-4.7
22613,21.8
22616,12.1
22617,10.1
22618,22.9
22623,17.8
22625,23.6
22628,22.4
22633,8.2
22635,0.7
22637,-15.0
22639,16.3
22641,12.8
22647,13.9
22648,10.1
22649,4.1
22650,3.0
22651,5.0
22652,18.6
22653,13.0
22655,7.3
22657,6.1
22658,4.9
22660,15.1
22661,15.7
22662,-9.8
22666,3.4
22668,14.4
22670,17.7
22671,1.1
22674,-22.7
22675,4.9
22676,2.3
22685,26.0
22686,3.6
22687,18.5
22690,21.4
22691,20.8
22693,8.2
22696,4.1
22697,6.2
22699,18.1
22701,0.5
22707,18.5
22708,21.0
22712,-9.8
22715,7.4
22716,11.7
22717,6.8
22718,17.9
22721,4.9
22723,25.2
22724,28.8
22728,6.4
22730,12.5
22732,1.9
22733,11.0
22734,15.9
22736,-9.8
22738,23.0
22739,15.2
22744,18.5
22745,8.2
22748,9.0
22749,10.8
22750,11.7
22751,25.7
22756,23.7
22757,3.9
22760,1.1
22762,-9.8
22763,3.0
22764,6.5
22766,5.1
22768,25.3
22770,6.9
22774,-25.3
22775,24.3
22777,9.4
22779,7.1
22781,12.2
22784,10.2
22787,19.9
22788,21.0
22790,2.8
22791,14.7
22794,24.1
22797,15.5
22799,24.9
22800,-2.1
22801,3.8
22804,17.6
22806,19.7
22807,0.4
22808,10.9
22809,0.8
22812,-15.0
22813,19.1
22815,2.7
22816,4.0
22817,22.6
22818,23.6
22819,14.1
22826,6.2
22827,28.8
22828,18.5
22830,0.7
22831,10.0
22832,7.4
22834,14.5
22838,9.2
22839,5.6
22842,17.5
22845,24.4
22847,9.6
22850,0.5
22852,8.4
22859,24.4
22860,15.1
22861,-12.4
22866,1.3
22868,25.2
22870,5.5
22873,8.7
22874,0.2
22875,-33.0
22879,13.0
22882,20.0
22883,15.7
22885,17.5
22887,24.0
22889,8.2
22890,5.6
22891,16.8
22897,12.7
22900,-2.1
22902,22.3
22904,5.0
22905,18.8
22906,1.6
22909,17.6
22910,10.7
22911,0.8
22913,-17.5
22917,4.6
22918,19.3
22919,6.3
22921,14.7
22922,18.7
22923,25.6
22924,21.7
22926,26.2
22927,24.6
22930,11.0
22931,24.2
22935,0.5
22937,24.6
22938,5.6
22939,4.8
22940,1.6
22941,11.5
22943,24.7
22944,17.6
22947,10.4
22949,-2.1
22954,11.9
22956,15.7
22958,11.2
22959,24.4
22960,12.0
22963,13.3
22969,23.9
22970,1.7
22971,8.9
22974,2.8
22975,-35.5
22979,1.0
22983,5.4
22984,22.1
22986,6.6
22988,8.2
22990,15.9
22991,11.9
22992,15.6
22993,23.2
22994,23.7
22995,9.9
22998,18.9
23000,-2.1
23007,14.3
23008,5.0
23011,6.2
23012,-20.1
23016,17.8
23017,6.0
23019,19.1
23020,22.2
23021,1.9
23022,15.5
23023,15.0
23024,9.8
23025,16.9
23026,23.6
23027,3.8
23035,0.1
23036,8.8
23038,5.6
23039,0.6
23040,2.2
23042,4.5
23044,10.9
23045,22.5
23050,-2.1
23053,23.3
23055,3.3
23056,3.8
23057,6.1
23058,12.0
23062,18.5
23064,19.5
23066,4.7
23068,20.3
23072,8.2
23073,16.1
23074,-33.0
23077,8.4
23078,19.1
23080,13.9
23081,11.6
23082,4.3
23085,14.2
23086,3.8
23088,10.4
23089,5.6
23093,3.9
23094,18.0
23095,13.5
23097,18.0
23099,19.3
23100,-4.7
23103,25.0
23105,25.5
23108,4.4
23109,25.4
23111,14.4
23112,-20.1
23113,23.4
23114,6.7
23118,18.3
23121,9.5
23122,15.1
23123,3.6
23125,22.9
23126,23.6
23127,12.8
23133,0.3
23134,14.8
23135,21.3
23136,21.4
23138,5.6
23140,16.8
23141,23.0
23142,24.7
23144,11.4
23146,18.1
23148,6.7
23149,-2.1
23151,21.2
23152,8.9
23154,9.4
23155,5.7
23159,14.3
23160,18.1
23162,21.0
23164,12.2
23165,14.2
23166,13.9
23167,0.4
23168,0.1
23169,18.1
23170,15.8
23173,10.8
23174,12.4
23175,-25.3
23177,11.9
23181,22.6
23184,25.8
23185,2.2
23187,23.5
23188,5.6
23189,13.4
23192,15.8
23194,24.8
23197,4.0
23198,8.0
23199,-7.2
23204,10.4
23205,1.6
23208,15.6
23210,13.3
23211,25.7
23212,-20.1
23214,23.2
23215,17.9
23218,1.9
23219,16.7
23220,9.8
23223,3.1
23225,0.7
23226,23.6
23230,8.9
23231,22.5
23232,1.9
23233,13.4
23236,11.0
23238,3.0
23239,8.7
23240,18.9
23243,10.3
23244,13.4
23247,20.7
23248,1.9
23249,-4.7
23256,21.8
23257,16.7
23258,9.8
23262,23.6
23265,26.0
23266,25.2
23267,15.0
23268,9.6
23271,1.7
23272,12.1
23274,-20.1
23275,13.6
23278,23.3
23279,22.9
23280,19.8
23281,25.9
23282,3.5
23285,17.8
23287,6.2
23288,5.6
23291,9.7
23293,17.8
23295,2.2
23298,10.4
23299,0.5
23300,-7.2
23302,15.0
23305,2.2
23312,-22.7
23313,16.0
23314,17.7
23320,14.5
23323,13.6
23324,0.1
23325,21.0
23327,18.3
23328,12.3
23333,18.0
23334,20.3
23336,17.8
23337,0.5
23341,12.6
23344,23.4
23345,9.5
23348,1.0
23349,-7.2
23350,12.2
23354,2.7
23357,24.7
23361,12.3
23362,26.2
23363,7.4
23368,7.4
23371,5.8
23373,25.4
23374,-12.4
23375,15.1
23378,19.0
23379,15.5
23380,11.8
23381,3.9
23386,23.7
23388,3.0
23389,10.7
23391,17.4
23395,8.5
23396,1.8
23397,0.9
23398,21.5
23399,-7.2
23401,24.1
23404,1.3
23405,12.2
23411,-22.7
23412,21.2
23414,12.9
23415,19.2
23417,0.7
23422,4.6
23423,9.7
23426,21.0
23427,3.9
23428,17.3
23430,14.7
23431,4.3
23432,19.8
23433,16.3
23434,18.3
23436,16.1
23437,0.9
23438,0.5
23439,0.3
23440,17.5
23441,16.1
23445,23.0
23448,9.5
23449,-7.2
23454,16.2
23455,15.7
23460,7.0
23461,28.8
23462,12.0
23464,18.0
23467,17.3
23469,24.4
23470,16.6
23472,22.6
23473,11.0
23474,-9.8
23475,15.5
23476,19.5
23479,11.7
23481,8.0
23485,21.6
23486,10.8
23487,4.3
23489,3.9
23492,17.2
23496,17.7
23499,-9.8
23503,19.9
23508,6.7
23510,16.9
23512,-25.3
23513,1.5
23516,2.2
23517,7.4
23518,9.1
23520,18.7
23522,11.5
23523,1.0
23524,20.6
23525,21.0
23526,17.7
23527,9.5
23528,23.4
23530,25.9
23532,6.2
23533,24.4
