0,62.2
1,166.1
2,72.5
4,110.2
5,59.6
6,113.7
7,59.6
9,89.2
10,80.2
11,87.7
12,72.5
15,64.8
17,62.2
19,110.9
20,86.5
21,155.2
24,86.1
25,62.2
26,108.5
27,90.0
29,120.5
31,108.4
32,122.6
34,72.5
36,147.8
37,136.9
40,112.7
41,94.1
42,119.7
44,75.1
46,127.5
48,145.9
50,145.0
53,75.1
54,91.6
56,149.9
58,121.7
59,112.7
61,107.8
63,80.2
68,151.3
69,131.1
72,77.6
76,99.2
78,106.9
79,159.5
81,85.4
82,99.5
84,110.7
86,124.0
90,128.0
91,87.9
94,101.1
95,92.7
97,100.7
99,89.2
100,85.4
106,149.7
108,141.2
110,93.1
113,102.6
120,85.4
121,137.4
122,161.0
123,166.3
127,118.7
129,85.2
130,122.8
132,85.4
133,128.0
137,97.1
142,85.4
147,160.6
148,87.9
149,150.3
152,80.2
156,123.3
158,122.9
160,82.8
162,87.9
164,153.1
165,119.4
166,109.2
169,87.4
170,97.6
173,82.8
183,80.2
185,120.3
187,108.3
193,110.1
194,72.5
201,138.8
202,161.7
204,69.9
206,144.7
209,123.5
210,151.3
211,126.0
212,90.7
213,130.5
214,91.2
215,67.4
217,118.5
224,123.1
225,64.8
226,107.2
227,156.8
229,124.7
230,145.2
231,120.1
232,114.6
234,96.0
235,69.9
236,151.6
237,132.6
239,87.6
241,108.7
242,100.1
244,116.1
245,75.1
247,132.5
249,131.5
251,158.4
255,136.1
256,69.9
257,119.0
259,165.6
261,111.4
263,134.4
264,131.5
267,82.8
268,150.0
272,141.3
273,91.6
275,127.8
276,129.7
277,64.8
284,123.3
285,131.7
287,85.4
294,127.7
295,102.1
296,162.1
297,69.9
298,143.0
300,96.1
305,142.6
306,128.5
308,93.1
309,117.2
310,126.9
313,159.8
316,96.6
317,107.4
318,82.8
319,105.8
321,162.7
322,148.8
329,93.1
330,107.6
334,146.6
338,159.5
339,85.4
341,139.6
344,144.3
345,132.1
348,119.7
350,87.9
351,130.2
357,157.4
360,87.9
363,152.9
365,158.5
366,110.3
367,143.1
368,112.0
370,85.4
371,126.7
372,163.3
374,145.8
375,154.5
376,86.4
380,87.9
381,94.3
382,119.9
383,132.2
384,144.9
385,134.4
387,159.2
388,154.7
390,154.1
392,85.4
393,152.5
395,107.7
396,128.5
402,85.4
404,137.0
409,160.0
411,120.9
412,75.1
414,89.0
415,83.2
416,110.2
418,131.9
420,107.7
422,75.1
424,165.0
428,161.6
431,151.7
432,149.9
433,72.5
435,150.4
439,99.7
443,69.9
446,124.7
450,157.2
451,127.0
453,77.6
460,115.6
461,127.0
464,75.1
465,89.1
468,144.4
469,136.9
470,100.1
472,125.2
474,146.7
475,72.5
478,155.0
479,91.8
480,89.0
483,103.1
484,166.8
485,75.1
486,124.3
487,128.3
488,105.7
490,160.8
494,131.6
495,67.4
498,158.3
499,83.9
502,150.4
505,80.2
507,138.5
508,156.5
511,154.6
513,131.3
514,154.7
516,69.9
520,153.7
521,120.3
523,131.6
524,113.9
525,94.7
527,95.6
529,156.1
531,161.5
533,132.3
535,101.0
537,75.1
539,149.9
540,89.7
545,153.3
546,108.9
547,95.6
548,125.4
556,146.6
558,80.2
559,146.9
560,122.0
564,146.4
567,148.1
568,100.8
572,139.5
574,98.8
577,139.9
578,83.7
579,93.1
580,146.0
583,92.5
585,102.7
589,87.9
590,132.3
591,82.9
592,164.4
593,127.8
594,155.3
595,166.7
596,108.4
599,137.6
600,109.1
601,90.5
602,92.4
610,144.2
611,85.4
612,85.6
615,87.1
617,127.7
618,153.1
619,150.6
620,155.6
621,82.8
622,143.7
623,85.7
626,110.2
627,157.6
629,107.7
631,75.1
634,143.5
636,99.8
640,88.0
641,111.5
642,72.5
643,142.0
645,149.7
649,124.7
650,114.6
652,75.1
653,116.6
655,160.7
662,88.8
663,69.9
666,141.4
668,125.8
669,133.6
670,130.9
671,100.0
673,72.5
674,102.8
676,135.2
678,142.6
679,135.9
680,128.8
681,165.9
682,166.0
684,72.5
686,154.4
688,119.0
692,113.5
694,67.4
696,164.2
697,120.7
701,103.2
702,138.0
703,156.0
704,75.1
706,152.6
707,102.6
708,123.9
709,98.0
712,111.8
713,157.4
714,69.9
715,90.7
719,107.0
721,115.8
722,140.4
724,85.7
726,87.9
727,93.5
728,125.7
729,102.6
735,123.8
736,75.1
742,121.3
743,155.6
746,98.2
747,128.8
749,118.3
752,147.9
753,114.5
755,82.4
756,75.1
761,160.6
762,107.4
763,126.8
764,114.5
766,95.6
767,103.9
772,87.9
773,142.6
774,117.4
775,85.0
776,91.0
777,87.9
779,167.9
781,121.7
782,163.6
783,136.6
785,99.6
787,98.2
788,128.0
789,152.4
790,161.0
795,117.2
797,104.8
798,98.2
799,165.9
803,164.8
806,85.2
807,139.6
808,95.6
809,129.0
810,93.6
815,166.3
818,82.7
819,95.6
820,94.3
822,118.1
826,118.3
829,87.9
830,162.3
833,125.8
836,90.8
837,136.5
839,87.9
840,140.2
843,121.0
844,127.5
847,131.8
848,132.9
849,80.2
850,150.3
852,161.7
855,131.5
856,131.5
859,85.9
861,82.8
862,124.6
864,104.4
866,147.0
867,160.9
869,156.0
871,77.6
874,135.9
876,141.5
877,82.3
881,75.1
882,96.9
885,125.5
889,147.7
890,105.9
891,75.1
892,134.8
893,121.1
894,105.2
896,109.5
898,164.6
901,91.6
902,69.9
904,142.8
907,153.5
908,148.0
911,128.2
912,69.9
918,158.8
919,93.7
921,124.2
922,69.9
925,121.0
926,158.4
930,83.8
931,165.2
932,151.3
933,72.5
934,164.5
938,166.7
942,149.8
944,85.4
945,147.2
947,154.2
949,152.6
952,148.7
953,147.8
954,75.1
956,85.0
958,108.2
959,99.9
964,95.6
965,125.3
967,127.0
969,87.6
971,124.4
974,75.1
978,129.2
979,120.1
982,146.3
985,98.2
986,164.7
988,101.1
990,102.1
994,116.8
995,147.4
996,87.9
997,120.7
998,153.3
999,90.1
1000,143.7
1003,134.0
1004,135.6
1005,91.7
1006,105.9
1007,163.8
1013,98.6
1014,153.0
1016,157.1
1017,165.4
1018,100.8
1019,98.0
1021,93.0
1022,93.5
1023,104.7
1027,96.3
1028,85.4
1030,104.5
1031,82.8
1033,138.3
1034,96.7
1035,156.8
1036,158.9
1037,134.6
1038,144.3
1042,82.8
1045,112.6
1047,121.7
1048,82.6
1053,75.1
1058,147.2
1059,87.7
1062,86.9
1063,141.4
1065,100.8
1069,141.3
1071,154.1
1072,105.4
1074,130.6
1075,95.7
1076,113.9
1078,95.6
1082,149.1
1083,154.3
1086,137.3
1088,87.1
1089,82.8
1090,123.5
1093,135.0
1094,90.5
1096,136.5
1098,94.4
1100,75.1
1107,146.6
1110,128.8
1111,122.0
1112,69.9
1117,132.5
1118,145.2
1120,122.8
1123,146.0
1124,87.9
1125,166.5
1127,156.4
1130,131.4
1131,99.6
1134,97.3
1135,80.2
1136,88.7
1138,124.7
1139,107.7
1140,94.4
1141,106.9
1143,104.8
1144,158.5
1145,137.5
1146,93.1
1149,100.4
1150,118.1
1154,91.3
1156,153.2
1157,86.4
1158,90.5
1160,98.5
1162,114.9
1168,119.1
1169,82.8
1170,141.1
1174,100.5
1176,122.8
1177,94.8
1179,116.3
1180,75.1
1181,141.7
1183,96.6
1185,162.3
1186,95.0
1187,85.0
1189,133.1
1190,149.0
1192,72.5
1193,102.3
1194,158.8
1195,117.6
1196,93.7
1197,131.1
1202,98.9
1204,95.6
1206,164.4
1208,132.2
1210,82.9
1211,122.0
1213,134.0
1214,84.6
1215,93.1
1217,90.2
1218,102.9
1219,110.7
1224,150.6
1225,165.0
1226,100.8
1227,84.2
1229,121.7
1230,134.9
1234,89.7
1236,146.7
1239,90.5
1243,85.0
1245,120.8
1246,95.8
1247,91.4
1248,128.5
1250,80.2
1251,114.7
1253,85.5
1255,125.8
1256,158.1
1261,138.3
1262,85.4
1264,124.6
1265,98.0
1268,84.1
1270,152.8
1272,109.2
1273,77.6
1275,161.3
1276,148.5
1283,145.9
1284,150.1
1285,105.9
1286,167.9
1288,91.5
1292,96.4
1296,151.5
1297,98.2
1303,164.9
1306,122.8
1308,85.4
1311,82.5
1313,104.1
1314,103.1
1315,86.6
1318,166.1
1319,77.6
1321,153.0
1322,147.3
1325,107.2
1332,69.9
1336,149.6
1337,159.6
1343,98.2
1352,97.8
1353,94.4
1354,90.5
1355,137.7
1357,83.3
1360,111.4
1362,100.5
1363,132.5
1364,147.0
1366,98.2
1367,94.2
1368,145.0
1370,162.5
1371,144.8
1376,132.2
1377,95.6
1379,108.2
1381,152.8
1382,150.6
1385,122.8
1386,97.5
1387,135.1
1388,82.8
1390,99.9
1396,97.7
1398,137.2
1400,75.1
1402,112.4
1403,90.1
1408,161.4
1409,122.4
1412,72.5
1414,88.8
1415,122.0
1418,152.4
1419,143.9
1420,84.1
1421,165.5
1423,100.8
1426,93.5
1427,163.5
1431,153.1
1433,112.9
1434,128.4
1435,105.9
1437,91.6
1438,85.2
1439,91.1
1440,131.4
1442,91.5
1445,164.1
1446,128.2
1447,90.5
1448,161.3
1449,89.8
1454,151.3
1456,128.5
1457,116.8
1459,147.1
1460,80.2
1463,106.6
1468,134.2
1471,77.6
1473,128.1
1474,117.6
1476,123.2
1479,118.8
1480,157.6
1481,166.3
1482,100.8
1484,140.0
1488,92.9
1489,121.9
1490,167.9
1493,160.1
1495,100.8
1501,125.0
1503,105.2
1504,121.2
1505,84.0
1507,93.1
1508,146.4
1510,119.7
1511,138.5
1513,166.0
1518,82.8
1520,166.0
1523,91.4
1525,84.8
1526,107.1
1527,154.8
1529,93.2
1530,82.8
1532,119.6
1535,85.8
1538,116.7
1539,145.4
1541,147.7
1542,103.4
1543,162.3
1544,148.1
1545,163.0
1549,99.3
1550,134.3
1554,98.2
1556,144.8
1557,93.0
1558,99.0
1559,110.0
1564,101.8
1565,100.8
1569,128.5
1571,125.8
1572,105.3
1574,163.2
1575,85.4
1577,90.5
1578,95.6
1579,101.3
1581,165.0
1582,117.3
1585,105.6
1586,98.1
1589,143.4
1590,87.9
1591,82.8
1592,87.7
1598,96.3
1599,145.9
1601,100.8
1604,124.3
1605,162.7
1611,94.8
1612,83.3
1613,95.6
1615,159.6
1622,82.1
1623,99.9
1624,100.7
1625,100.8
1628,87.2
1630,83.6
1631,126.6
1632,103.4
1634,107.1
1635,143.4
1637,87.9
1638,116.7
1645,102.6
1646,91.6
1647,82.4
1648,93.1
1649,126.4
1651,131.2
1654,148.9
1655,167.9
1660,100.8
1661,92.4
1663,92.2
1664,150.7
1665,84.0
1667,164.1
1669,155.1
1673,90.5
1674,115.1
1676,146.8
1677,136.0
1679,152.6
1681,93.9
1684,100.8
1685,124.5
1686,162.3
1690,145.8
1691,132.0
1693,127.7
1696,93.1
1697,148.5
1698,144.5
1699,145.6
1700,135.1
1703,115.4
1705,128.6
1707,145.0
1708,85.4
1712,107.8
1714,167.1
1715,163.8
1716,163.1
1717,156.5
1718,129.1
1719,90.5
1721,123.3
1724,104.2
1725,103.1
1726,86.4
1727,161.2
1729,152.2
1731,82.8
1732,165.6
1734,126.3
1737,140.8
1738,103.4
1740,92.2
1742,108.5
1743,90.3
1747,153.8
1749,164.0
1753,89.1
1754,90.3
1755,100.8
1756,157.9
1758,109.4
1760,138.9
1767,87.9
1768,129.8
1769,113.8
1773,104.3
1778,85.4
1779,125.1
1785,147.3
1786,164.8
1787,108.6
1788,165.7
1789,98.3
1790,82.8
1792,104.3
1794,154.9
1795,83.0
1796,113.2
1802,108.5
1803,109.9
1804,102.6
1805,117.5
1806,84.6
1808,109.7
1810,163.1
1811,134.2
1812,103.5
1814,95.6
1815,132.1
1825,82.8
1830,142.5
1831,156.2
1832,119.1
1836,94.8
1837,80.2
1839,86.6
1840,87.0
1841,93.9
1843,157.8
1845,144.0
1848,77.6
1849,151.7
1855,142.7
1856,128.4
1857,89.9
1858,125.6
1859,161.2
1860,93.1
1863,138.1
1866,126.1
1869,133.3
1870,148.0
1871,75.1
1873,165.3
1874,94.8
1876,158.6
1878,94.1
1879,127.7
1880,125.1
1881,88.0
1883,90.5
1886,104.5
1887,109.9
1888,93.7
1892,101.6
1894,85.4
1896,160.5
1898,136.8
1900,98.6
1901,108.8
1902,163.8
1904,101.1
1905,75.1
1907,167.6
1908,83.5
1909,107.3
1912,95.7
1916,72.5
1921,90.1
1923,148.4
1928,163.7
1929,69.9
1930,129.4
1933,110.6
1936,129.2
1940,90.5
1941,141.0
1942,162.7
1946,136.0
1947,149.6
1951,69.9
1952,165.8
1957,111.8
1961,83.5
1963,85.4
1966,139.2
1973,158.7
1974,82.8
1975,91.8
1976,84.7
1977,122.0
1979,96.9
1984,86.8
1985,69.9
1986,118.7
1993,84.0
1995,89.3
1996,130.3
1997,64.8
2001,126.9
2002,121.4
2004,84.5
2005,144.2
2007,146.1
2009,64.8
2013,97.1
2016,166.6
2017,92.9
2019,145.2
2020,87.9
2021,161.6
2022,118.7
2023,112.2
2024,92.8
2026,138.3
2027,104.7
2029,127.8
2031,69.9
2032,114.2
2036,124.8
2038,118.9
2039,146.6
2040,101.3
2042,77.6
2043,152.1
2044,158.6
2049,160.6
2052,146.8
2054,77.6
2058,108.8
2060,144.4
2061,165.5
2062,108.3
2065,97.3
2066,69.9
2067,94.4
2068,119.8
2073,166.9
2075,155.3
2077,64.8
2080,107.8
2081,153.0
2083,84.2
2084,135.5
2085,110.6
2087,82.6
2088,59.6
2089,124.9
2090,145.9
2091,135.8
2094,99.6
2095,144.9
2097,124.3
2099,94.8
2100,82.8
2101,102.2
2102,130.0
2106,118.3
2107,124.2
2108,117.2
2110,96.5
2111,80.2
2112,162.9
2114,147.1
2115,146.5
2116,92.9
2117,121.5
2118,163.9
2119,115.9
2122,166.9
2123,80.2
2126,125.8
2130,154.9
2131,142.5
2132,115.3
2133,112.2
2134,142.1
2135,80.2
2137,116.4
2138,95.1
2142,93.2
2145,166.6
2146,72.5
2147,164.2
2149,135.4
2152,120.0
2154,167.8
2155,155.3
2156,120.0
2157,67.4
2162,155.6
2165,105.2
2166,135.6
2167,122.7
2168,59.6
2171,153.4
2175,139.0
2176,131.7
2180,85.4
2183,137.0
2185,113.1
2188,85.1
2189,165.8
2192,75.1
2194,91.4
2196,125.9
2200,125.1
2203,72.5
2204,123.6
2207,107.9
2208,94.5
2209,102.2
2212,156.3
2214,64.8
2215,151.8
2217,108.5
2220,108.4
2226,62.2
2228,118.1
2231,145.5
2233,114.5
2234,95.1
2237,69.9
2238,91.5
2239,89.5
2241,150.0
2243,119.2
2244,103.7
2246,145.5
2248,54.5
2249,112.6
2251,112.7
2252,131.4
2253,96.8
2254,165.4
2255,138.8
2257,105.8
2260,82.8
2261,106.3
2263,152.4
2264,147.9
2268,90.7
2270,143.1
2271,124.4
2272,75.1
2273,98.8
2274,129.3
2275,127.7
2276,121.9
2278,82.2
2281,139.5
2282,102.1
2283,72.5
2284,101.4
2285,140.2
2286,149.9
2288,125.0
2290,156.3
2293,151.3
2294,69.9
2295,144.3
2297,127.4
2298,105.8
2300,150.9
2306,62.2
2307,128.2
2309,167.4
2311,116.8
2312,156.5
2315,83.6
2316,154.8
2317,67.4
2318,152.2
2319,167.4
2320,97.6
2321,95.8
2323,157.5
2327,108.7
2328,138.5
2329,59.6
2330,106.0
2332,151.0
2333,98.0
2335,156.2
2336,92.2
2339,116.5
2340,82.8
2341,108.7
2344,146.0
2347,127.4
2352,80.2
2354,82.4
2356,163.4
2358,124.7
2359,90.6
2361,144.8
2362,157.0
2363,72.5
2364,115.1
2365,166.9
2370,99.4
2372,87.4
2373,142.1
2374,67.4
2375,91.0
2378,120.4
2385,57.1
2390,153.2
2391,135.6
2392,160.5
2398,72.5
2399,86.3
2402,89.7
2403,105.7
2408,162.7
2409,59.6
2410,100.0
2411,161.0
2414,122.8
2416,92.0
2417,91.2
2420,80.2
2422,141.3
2423,146.3
2426,132.7
2428,122.1
2429,138.1
2431,117.7
2432,75.1
2439,149.1
2440,91.0
2441,136.2
2443,62.2
2444,115.4
2445,161.7
2446,147.4
2447,162.8
2448,140.8
2450,135.0
2455,57.1
2456,146.6
2458,86.4
2459,125.6
2460,90.5
2462,137.7
2464,154.7
2466,54.5
2472,136.7
2478,75.1
2481,152.6
2484,110.3
2488,113.4
2489,67.4
2493,82.8
2495,92.4
2500,82.8
2502,99.7
2503,119.6
2504,101.2
2506,127.6
2508,142.7
2510,83.9
2511,77.6
2514,161.3
2515,130.0
2516,140.1
2518,154.0
2519,126.9
2524,62.2
2528,82.3
2529,93.8
2535,54.5
2538,122.2
2539,147.4
2542,143.5
2546,57.1
2550,122.2
2551,163.3
2552,91.1
2554,84.4
2557,82.8
2559,141.4
2565,91.6
2568,134.9
2569,69.9
2572,165.9
2573,95.3
2574,158.9
2576,140.2
2577,157.6
2578,132.6
2580,77.6
2582,167.0
2583,103.6
2586,124.2
2588,92.4
2590,99.0
2592,72.5
2593,111.1
2599,101.5
2600,120.5
2602,118.1
2604,59.6
2605,156.2
2606,159.4
2608,82.6
2611,150.7
2615,57.1
2617,129.0
2621,139.9
2624,143.6
2625,113.5
2626,57.1
2628,112.3
2630,156.6
2631,125.0
2634,83.3
2635,138.0
2636,139.5
2637,82.8
2640,107.2
2643,150.7
2644,93.6
2646,157.4
2647,164.9
2649,67.4
2650,96.0
2652,152.9
2653,115.6
2655,85.3
2657,167.4
2661,67.4
2663,133.8
2669,147.7
2670,129.4
2672,64.8
2673,154.8
2674,104.3
2675,139.3
2678,83.7
2679,150.9
2683,54.5
2684,140.7
2686,112.7
2687,119.6
2691,141.3
2693,103.1
2695,59.6
2697,155.1
2698,160.6
2699,113.4
2700,146.4
2701,157.5
2702,94.2
2705,109.7
2706,54.5
2710,145.3
2711,154.1
2715,158.9
2716,152.8
2717,80.2
2718,115.4
2719,82.4
2722,161.8
2724,100.7
2725,113.3
2726,166.2
2727,164.1
2728,137.8
2729,67.4
2732,147.9
2734,158.8
2735,95.5
2736,155.0
2737,142.4
2740,141.8
2741,62.2
2744,135.3
2746,156.5
2752,62.2
2754,131.7
2755,106.8
2757,155.6
2758,125.3
2762,101.0
2763,57.1
2764,82.9
2765,160.5
2766,145.5
2767,133.7
2769,151.6
2770,152.0
2774,109.2
2775,64.8
2776,101.7
2780,94.7
2786,54.5
2788,113.7
2792,88.1
2794,123.0
2795,113.4
2796,151.4
2797,129.3
2798,80.2
2800,115.4
2802,107.0
2803,143.3
2809,69.9
2810,103.1
2811,139.4
2812,162.5
2815,156.2
2818,102.0
2819,129.3
2821,64.8
2822,90.0
2824,110.0
2826,152.5
2828,157.7
2829,105.7
2830,124.9
2832,62.2
2834,104.3
2839,167.5
2840,124.2
2842,152.5
2843,59.6
2845,132.3
2846,118.5
2847,164.5
2848,109.5
2850,103.2
2852,111.0
2854,146.0
2855,67.4
2858,160.6
2859,91.6
2865,129.0
2867,54.5
2869,88.6
2870,120.6
2874,124.4
2875,151.4
2876,93.5
2877,132.9
2878,82.8
2879,147.8
2880,124.8
2881,90.5
2883,113.2
2884,95.3
2888,155.5
2889,77.6
2892,137.0
2893,147.6
2896,151.8
2900,69.9
2902,121.7
2904,101.5
2906,115.0
2907,95.2
2911,149.7
2912,67.4
2915,119.4
2917,145.5
2918,167.2
2919,148.4
2920,118.4
2924,62.2
2925,121.8
2927,94.2
2928,112.8
2929,120.0
2931,84.3
2933,99.5
2934,153.1
2935,75.1
2938,121.9
2940,113.1
2943,151.3
2944,146.9
2947,59.6
2950,123.3
2951,167.6
2953,146.7
2955,123.4
2957,144.1
2958,77.6
2961,100.6
2962,123.9
2963,108.4
2964,101.6
2965,83.4
2966,98.0
2968,120.0
2969,72.5
2970,152.6
2972,154.3
2973,125.3
2980,69.9
2990,109.9
2993,64.8
3001,121.5
3002,97.6
3004,57.1
3005,86.3
3006,130.4
3007,110.6
3010,148.3
3012,115.9
3014,127.4
3015,75.1
3016,166.4
3017,158.8
3019,98.0
3020,126.4
3021,107.8
3022,85.9
3023,117.8
3024,103.6
3026,59.6
3027,82.9
3028,138.1
3029,114.4
3030,99.8
3031,123.1
3033,87.8
3035,153.8
3038,75.1
3039,99.8
3042,111.1
3044,144.5
3045,165.2
3047,116.5
3049,75.1
3050,117.9
3051,93.9
3052,133.9
3053,100.7
3054,127.5
3056,144.1
3059,153.9
3060,134.2
3061,64.8
3064,117.0
3067,139.8
3068,84.6
3070,104.6
3073,59.6
3076,161.0
3079,127.0
3081,115.8
3084,51.9
3086,140.4
3089,97.2
3092,141.7
3093,149.1
3095,75.1
3097,148.9
3101,104.3
3103,111.8
3106,64.8
3109,84.2
3111,127.1
3112,153.7
3113,148.4
3118,77.6
3120,122.8
3123,131.7
3125,145.8
3127,164.3
3128,110.2
3130,72.5
3133,155.4
3134,118.9
3135,104.1
3136,82.8
3137,98.5
3141,62.2
3142,138.4
3143,109.7
3147,120.7
3149,145.4
3150,125.0
3152,57.1
3153,157.8
3155,125.0
3156,111.2
3157,103.9
3158,119.5
3159,88.6
3160,142.6
3161,84.4
3162,153.5
3163,127.3
3164,49.3
3166,94.7
3168,97.6
3169,100.1
3170,116.6
3175,77.6
3176,154.0
3177,121.2
3178,99.7
3180,87.1
3181,97.1
3183,163.2
3185,94.7
3186,90.9
3187,67.4
3191,147.5
3192,153.9
3196,153.4
3198,75.1
3199,138.0
3202,124.1
3204,134.2
3207,165.3
3208,91.2
3209,96.1
3210,72.5
3211,149.0
3212,95.6
3213,157.9
3218,114.0
3219,106.8
3220,154.0
3221,59.6
3224,116.8
3226,129.6
3227,84.8
3229,97.1
3230,90.9
3232,57.1
3234,118.5
3235,131.8
3237,99.8
3238,155.7
3239,97.4
3241,84.5
3244,49.3
3246,97.5
3248,117.5
3253,164.7
3254,130.9
3256,77.6
3259,129.3
3261,90.2
3263,166.2
3264,104.9
3265,140.4
3267,72.5
3268,105.1
3269,153.3
3271,87.2
3273,129.0
3275,156.7
3276,120.7
3277,158.0
3278,69.9
3279,147.3
3280,161.3
3281,151.3
3282,88.9
3283,161.5
3288,120.3
3289,149.0
3290,64.8
3291,158.4
3292,140.9
3294,163.0
3295,107.0
3297,99.1
3298,97.9
3299,153.8
3300,97.8
3301,57.1
3303,160.8
3304,114.4
3305,101.3
3306,91.7
3307,151.5
3310,95.8
3312,59.6
3313,106.0
3314,120.1
3316,166.2
3317,160.8
3318,82.5
3323,101.1
3324,57.1
3327,130.4
3328,145.8
3330,147.0
3332,110.0
3333,87.2
3336,82.8
3344,157.8
3346,135.0
3347,77.6
3349,134.7
3350,166.9
3354,110.0
3358,69.9
3359,142.1
3366,100.8
3369,64.8
3375,134.0
3377,92.9
3381,51.9
3382,142.3
3387,167.3
3388,124.4
3389,128.5
3392,89.5
3393,62.2
3394,159.0
3395,92.1
3397,115.3
3398,111.9
3400,86.1
3403,165.8
3404,51.9
3405,130.4
3411,118.9
3413,92.8
3416,77.6
3417,119.0
3421,118.1
3425,116.0
3427,77.6
3429,110.5
3430,96.8
3438,64.8
3440,156.2
3441,129.6
3442,108.1
3443,166.0
3444,132.6
3445,104.8
3446,146.4
3447,132.4
3449,57.1
3450,84.0
3456,144.2
3458,125.5
3459,129.0
3460,107.9
3461,82.2
3462,54.5
3463,146.3
3464,167.5
3465,146.8
3468,154.8
3472,83.9
3473,67.4
3475,85.8
3476,82.9
3479,143.5
3481,90.9
3482,164.5
3484,59.6
3486,154.6
3487,133.2
3491,96.3
3492,148.4
3495,77.6
3499,159.8
3501,148.8
3503,163.2
3504,157.9
3507,69.9
3509,102.5
3510,84.8
3511,104.3
3513,131.2
3518,59.6
3522,85.0
3523,101.4
3527,159.3
3528,112.0
3530,57.1
3531,98.5
3534,99.7
3536,82.6
3537,96.4
3539,112.7
3541,85.5
3542,59.6
3544,151.6
3545,159.9
3547,151.3
3549,111.6
3553,75.1
3555,165.7
3556,91.8
3558,158.1
3560,101.5
3564,62.2
3571,111.0
3574,110.3
3575,75.1
3576,143.7
3579,159.2
3580,101.4
3581,116.8
3588,67.4
3589,125.4
3590,129.7
3595,130.2
3596,141.8
3597,99.9
3598,98.7
3599,54.5
3603,148.7
3605,98.6
3607,95.9
3610,51.9
3611,155.1
3612,115.9
3614,96.0
3616,118.7
3621,49.3
3622,82.6
3626,128.2
3627,111.8
3630,146.2
3633,72.5
3636,128.3
3638,137.5
3642,92.5
3644,64.8
3645,153.5
3646,149.8
3647,146.7
3648,89.8
3649,157.7
3651,86.9
3655,149.1
3656,67.4
3657,146.6
3658,115.8
3660,160.1
3661,134.6
3662,134.9
3663,163.8
3664,92.1
3666,102.9
3667,64.8
3669,124.7
3671,99.0
3672,123.4
3674,108.6
3676,114.0
3678,95.8
3679,57.1
3683,160.0
3688,115.0
3690,54.5
3692,133.2
3698,156.6
3699,137.1
3701,51.9
3703,130.7
3705,159.5
3708,111.4
3709,166.8
3711,90.4
3713,77.6
3715,93.4
3716,116.0
3718,88.5
3719,101.7
3721,123.4
3724,102.0
3725,59.6
3731,116.5
3733,163.2
3735,155.5
3736,64.8
3739,105.6
3740,109.4
3747,64.8
3749,139.4
3750,125.7
3752,160.9
3753,103.7
3755,90.8
3756,159.9
3757,142.3
3758,158.6
3759,62.2
3760,118.6
3762,120.6
3763,147.9
3764,84.3
3767,131.1
3768,95.6
3770,57.1
3775,145.8
3776,127.8
3778,105.1
3779,157.2
3780,105.3
3781,54.5
3782,98.4
3783,142.6
3784,87.4
3785,141.4
3787,156.0
3789,112.5
3792,109.3
3793,77.6
3797,105.3
3803,143.9
3804,94.0
3805,62.2
3809,132.0
3810,91.0
3811,102.4
3812,154.4
3813,126.5
3816,62.2
3817,120.0
3819,160.9
3820,121.6
3822,94.0
3823,122.1
3825,165.7
3826,114.2
3827,57.1
3828,145.7
3830,156.0
3831,95.2
3832,90.0
3835,128.9
3836,142.9
3838,49.3
3839,103.9
3840,150.6
3844,109.6
3845,162.1
3849,150.0
3850,54.5
3851,132.8
3855,145.3
3856,165.3
3857,108.0
3859,128.7
3860,124.4
3862,44.2
3865,119.1
3869,136.5
3871,153.3
3873,67.4
3875,99.1
3878,100.0
3879,102.2
3880,96.6
3884,132.7
3885,59.6
3886,130.0
3891,112.5
3892,112.8
3894,135.1
3896,54.5
3898,86.9
3899,111.3
3902,143.6
3903,139.2
3905,164.6
3906,105.6
3907,54.5
3908,158.0
3912,110.7
3913,125.3
3916,149.5
3917,145.2
3919,49.3
3920,127.6
3921,153.3
3924,128.6
3926,165.6
3928,109.6
3929,119.6
3930,150.3
3931,57.1
3932,93.6
3934,149.8
3936,83.5
3938,125.7
3940,116.2
3941,92.8
3942,41.6
3943,132.3
3948,96.5
3949,108.2
3951,100.6
3953,67.4
3955,149.1
3958,157.2
3959,145.4
3961,88.9
3964,67.4
3967,132.4
3969,96.5
3973,95.7
3975,97.8
3976,62.2
3979,112.1
3986,146.9
3987,127.9
3988,51.9
3989,112.3
3990,150.4
3992,162.3
3994,116.9
3996,147.1
3999,46.8
4003,167.0
4010,120.5
4011,57.1
4012,129.5
4017,98.2
4021,147.4
4022,46.8
4023,157.7
4026,137.6
4027,89.8
4029,163.3
4030,150.2
4031,103.1
4033,64.8
4034,105.5
4035,106.7
4036,131.3
4038,133.1
4039,149.8
4040,134.1
4044,64.8
4045,138.3
4048,115.9
4049,153.5
4051,120.1
4052,93.6
4055,116.3
4057,54.5
4060,104.6
4064,153.5
4066,111.5
4067,154.2
4068,49.3
4069,164.8
4072,113.1
4073,98.7
4079,39.1
4080,87.7
4083,153.9
4086,137.6
4087,83.6
4090,57.1
4092,101.9
4097,88.4
4099,145.4
4100,89.3
4101,100.9
4102,51.9
4110,113.9
4112,99.3
4113,67.4
4117,135.3
4120,93.6
4124,107.6
4125,62.2
4126,121.9
4127,89.5
4131,132.9
4134,114.9
4136,49.3
4137,82.5
4138,86.0
4140,165.0
4141,162.1
4144,94.3
4145,123.8
4147,85.2
4148,41.6
4150,116.4
4153,116.4
4154,161.4
4158,146.4
4159,39.1
4161,153.5
4166,86.7
4167,165.9
4170,62.2
4173,156.8
4175,115.6
4176,100.8
4180,127.2
4182,54.5
4192,162.8
4193,82.9
4194,62.2
4201,131.2
4205,57.1
4207,101.6
4208,96.9
4210,105.3
4214,89.8
4215,153.0
4216,44.2
4217,138.7
4222,155.7
4224,139.9
4225,99.7
4226,156.6
4228,39.1
4233,99.0
4234,117.3
4236,83.1
4238,162.6
4239,39.1
4243,135.1
4245,106.3
4246,90.0
4247,119.4
4250,64.8
4251,93.8
4252,99.2
4254,90.5
4261,112.0
4262,57.1
4263,159.4
4264,106.7
4268,160.7
4270,98.9
4271,97.4
4272,122.4
4274,57.1
4275,158.9
4276,127.0
4278,123.0
4279,118.1
4280,161.0
4285,51.9
4289,84.7
4292,155.8
4293,99.9
4294,103.6
4295,107.1
4296,39.1
4298,135.6
4299,85.9
4300,105.9
4303,118.9
4306,88.0
4307,39.1
4308,110.2
4309,111.3
4315,126.0
4316,120.0
4317,167.8
4318,153.9
4319,124.5
4320,41.6
4321,134.9
4322,98.2
4323,107.8
4324,97.7
4326,157.9
4327,106.7
4328,100.9
4331,67.4
4332,108.5
4333,148.3
4334,88.7
4336,124.7
4340,100.8
4341,111.7
4342,59.6
4343,149.2
4344,150.5
4346,125.1
4352,115.4
4354,57.1
4356,104.0
4357,131.0
4358,167.8
4359,96.2
4361,157.2
4363,148.5
4364,113.8
4365,49.3
4368,101.4
4369,154.4
4371,93.8
4373,130.1
4374,85.6
4376,41.6
4380,141.2
4381,96.9
4382,126.4
4383,145.1
4385,104.9
4386,138.1
4388,41.6
4389,166.2
4390,82.3
4392,111.1
4394,125.1
4395,111.0
4396,158.2
4399,123.4
4400,41.6
4402,163.2
4403,97.0
4406,115.6
4408,106.0
4411,69.9
4415,109.6
4420,132.7
4422,59.6
4425,83.4
4426,150.6
4427,132.0
4429,101.0
4430,127.9
4432,104.5
4433,51.9
4434,118.8
4440,108.2
4441,154.8
4443,136.6
4445,44.2
4447,145.4
4450,107.2
4457,39.1
4458,121.2
4459,164.2
4462,126.9
4467,105.7
4468,49.3
4470,121.3
4476,116.1
4478,114.3
4480,44.2
4481,128.6
4486,120.8
4487,138.1
4490,155.6
4491,62.2
4492,157.5
4495,104.1
4496,117.6
4497,122.2
4499,140.4
4502,54.5
4508,115.3
4510,102.1
4513,49.3
4522,129.6
4523,151.6
4524,165.0
4525,87.8
4526,51.9
4527,138.7
4528,157.9
4529,89.5
4533,114.1
4534,126.5
4535,134.4
4536,84.9
4537,49.3
4539,87.1
4540,120.9
4541,161.5
4546,96.4
4547,154.5
4548,59.6
4552,83.0
4554,126.5
4555,110.8
4556,142.0
4558,137.9
4559,44.2
4560,154.0
4562,115.1
4563,106.9
4564,102.3
4565,117.4
4568,157.9
4570,84.9
4571,62.2
4573,159.4
4574,101.6
4575,103.3
4576,105.0
4577,118.5
4579,125.8
4580,100.2
4582,57.1
4584,116.1
4586,137.4
4587,139.3
4590,83.9
4591,116.8
4593,142.3
4594,49.3
4595,158.3
4596,92.3
4599,162.2
4601,97.7
4602,97.8
4604,117.3
4605,44.2
4606,155.8
4608,160.4
4609,137.2
4612,148.7
4613,134.8
4614,148.3
4616,120.9
4617,39.1
4622,137.6
4623,119.1
4627,100.8
4628,54.5
4630,147.4
4637,140.2
4639,39.1
4641,151.5
4642,86.0
4645,122.5
4648,99.7
4649,117.7
4652,51.9
4654,108.2
4655,151.9
4657,141.9
4658,141.6
4659,156.7
4660,125.3
4661,123.4
4663,51.9
4664,116.4
4665,145.8
4666,109.1
4669,167.5
4671,109.7
4673,83.9
4674,44.2
4675,139.7
4677,108.0
4678,93.9
4679,153.2
4680,141.7
4682,87.0
4684,137.7
4685,36.5
4687,130.2
4691,147.8
4692,147.8
4694,128.9
4695,116.5
4697,36.5
4703,144.2
4704,84.6
4705,115.6
4706,98.1
4707,87.3
4708,51.9
4709,88.0
4710,147.6
4712,131.7
4715,164.7
4716,159.1
4718,83.3
4719,98.5
4720,41.6
4721,151.6
4723,132.0
4727,147.9
4731,51.9
4732,125.8
4736,135.0
4737,139.9
4738,130.7
4739,128.1
4743,59.6
4744,95.7
4746,92.3
4748,95.2
4749,142.4
4751,165.1
4753,148.2
4754,44.2
4756,148.4
4757,102.1
4759,89.8
4761,145.4
4762,161.3
4764,127.9
4765,36.5
4768,152.7
4769,108.5
4770,104.6
4771,116.8
4772,107.1
4776,31.3
4778,84.6
4779,143.7
4781,132.9
4784,141.1
4789,51.9
4791,139.2
4794,165.6
4797,89.5
4800,49.3
4803,148.3
4806,164.4
4807,108.0
4808,167.1
4809,133.7
4810,83.7
4811,51.9
4812,106.3
4813,148.7
4814,134.5
4819,118.0
4820,84.3
4821,114.7
4823,49.3
4824,97.4
4826,135.1
4827,152.5
4828,119.8
4830,82.2
4831,104.2
4834,39.1
4835,134.2
4836,96.0
4837,167.9
4838,102.0
4839,160.5
4840,145.9
4842,105.9
4843,149.6
4845,36.5
4846,151.8
4847,142.0
4849,149.3
4850,141.7
4851,152.7
4852,88.5
4853,144.3
4855,91.6
4857,28.8
4863,122.5
4864,156.0
4865,82.5
4866,136.5
4867,164.0
4869,57.1
4874,105.3
4875,101.1
4877,91.8
4880,51.9
4881,157.9
4883,127.4
4885,156.3
4886,147.2
4888,161.2
4890,90.9
4891,49.3
4894,137.9
4895,103.7
4896,148.4
4898,161.2
4902,44.2
4909,138.6
4910,159.5
4911,138.2
4913,90.0
4914,36.5
4915,82.1
4916,162.8
4919,148.6
4922,91.8
4923,86.7
4926,31.3
4927,133.5
4928,95.4
4929,136.2
4931,85.7
4935,157.7
4937,28.8
4938,99.5
4941,126.1
4942,128.4
4944,126.5
4946,159.2
4948,54.5
4950,164.6
4952,87.6
4953,95.7
4955,94.9
4958,96.2
4960,57.1
4961,163.3
4962,129.3
4965,138.0
4967,148.3
4971,49.3
4972,153.6
4977,154.5
4979,110.1
4981,163.4
4982,41.6
4983,138.8
4985,83.7
4987,94.7
4988,125.7
4989,131.8
4995,33.9
4998,111.1
4999,130.6
5000,137.2
5002,122.2
5005,105.7
5006,39.1
5010,88.5
5011,128.4
5012,118.4
5013,132.9
5017,36.5
5023,91.7
5025,133.6
5027,158.9
5028,59.6
5029,155.8
5031,96.7
5033,122.6
5037,115.7
5039,83.3
5040,54.5
5041,84.8
5049,93.5
5051,83.4
5052,41.6
5061,135.7
5063,36.5
5068,121.2
5069,136.7
5070,151.2
5071,167.5
5072,118.2
5073,139.8
5074,33.9
5075,157.9
5079,106.1
5080,100.8
5082,151.1
5085,114.8
5086,44.2
5089,138.0
5092,137.2
5093,110.7
5096,126.9
5097,36.5
5101,152.6
5103,123.7
5104,82.5
5105,97.4
5107,145.3
5108,57.1
5109,107.4
5113,138.9
5114,138.6
5116,107.7
5117,138.6
5121,49.3
5123,114.2
5126,117.1
5129,83.6
5130,89.7
5132,36.5
5135,161.6
5138,164.3
5139,121.4
5141,103.4
5142,97.7
5143,31.3
5145,160.2
5154,31.3
5156,131.0
5160,116.8
5161,152.2
5162,142.6
5166,44.2
5167,103.5
5173,114.4
5177,41.6
5181,147.4
5183,82.1
5186,161.0
5187,107.3
5188,114.3
5189,54.5
5191,93.4
5194,147.8
5197,141.3
5199,85.6
5200,49.3
5201,112.5
5211,142.1
5212,36.5
5213,118.5
5215,125.1
5220,88.8
5223,33.9
5224,127.8
5225,119.8
5227,113.6
5228,163.0
5229,140.5
5231,165.5
5232,157.1
5234,36.5
5235,153.1
5239,105.4
5241,157.4
5243,125.9
5244,94.6
5245,51.9
5246,112.3
5248,143.6
5249,120.9
5251,124.9
5254,126.5
5255,105.8
5256,143.3
5258,39.1
5259,117.4
5260,167.9
5261,164.6
5263,101.9
5267,85.3
5268,116.7
5269,46.8
5271,121.9
5273,148.7
5275,165.4
5276,117.1
5280,54.5
5287,132.3
5288,93.1
5289,132.0
5292,44.2
5293,130.8
5294,123.7
5295,160.4
5298,158.3
5303,39.1
5307,159.8
5308,93.6
5309,86.3
5310,104.1
5311,134.0
5312,115.3
5314,36.5
5315,96.3
5317,117.3
5319,135.3
5321,83.0
5323,117.9
5326,54.5
5327,88.2
5328,121.0
5329,162.1
5333,132.2
5334,97.2
5335,158.8
5338,41.6
5341,114.4
5342,166.7
5343,160.1
5346,163.5
5349,46.8
5353,138.5
5354,95.3
5355,160.7
5357,133.9
5358,163.8
5359,129.1
5360,44.2
5361,100.5
5362,146.6
5363,145.2
5366,156.4
5367,116.4
5371,33.9
5374,126.3
5378,143.1
5384,28.8
5385,120.8
5388,98.1
5389,160.8
5391,119.3
5392,107.9
5395,28.8
5397,103.2
5400,127.2
5401,86.2
5403,163.5
5404,151.4
5405,159.0
5406,49.3
5409,151.9
5410,90.2
5411,99.2
5413,127.4
5417,41.6
5419,98.3
5422,147.7
5424,89.3
5425,167.2
5426,116.6
5428,84.5
5429,41.6
5430,159.1
5431,106.9
5433,86.3
5438,166.2
5440,41.6
5441,142.1
5447,162.0
5452,36.5
5453,94.6
5457,135.1
5459,146.2
5464,31.3
5465,87.8
5467,150.1
5468,145.7
5472,138.9
5473,155.4
5474,156.9
5475,23.6
5480,144.9
5482,130.5
5485,100.7
5486,49.3
5489,92.2
5491,99.6
5492,151.8
5493,124.6
5495,95.1
5497,57.1
5499,136.7
5500,128.7
5501,93.4
5504,132.9
5506,128.5
5507,137.4
5508,153.6
5509,51.9
5510,115.0
5511,95.7
5516,149.6
5519,162.8
5520,93.6
5521,44.2
5523,160.1
5524,110.3
5525,165.4
5526,137.8
5530,86.8
5531,97.7
5532,33.9
5533,111.0
5535,102.0
5536,131.0
5539,123.7
5540,118.7
5542,134.3
5543,33.9
5544,150.8
5547,135.5
5548,104.4
5549,159.9
5550,116.5
5551,160.7
5554,130.9
5555,26.2
5557,166.0
5559,148.8
5563,161.2
5566,49.3
5567,166.2
5570,84.9
5572,166.9
5576,113.8
5577,49.3
5579,127.9
5581,157.6
5582,89.3
5583,138.7
5586,103.2
5590,39.1
5593,162.4
5597,120.6
5600,117.1
5601,33.9
5603,90.6
5605,127.3
5606,131.2
5608,166.1
5611,95.2
5612,28.8
5615,147.7
5616,160.7
5617,137.2
5621,148.3
5622,155.1
5623,36.5
5624,82.6
5625,103.3
5627,162.8
5628,124.2
5630,92.4
5631,96.0
5632,101.4
5633,88.2
5635,36.5
5642,98.7
5645,138.8
5646,54.5
5647,109.2
5648,116.8
5649,83.1
5651,124.7
5653,124.6
5654,137.2
5655,88.3
5658,49.3
5659,167.2
5660,112.1
5663,101.4
5664,89.4
5667,131.5
5669,36.5
5671,139.0
5672,165.1
5673,94.6
5674,110.7
5676,135.5
5677,153.9
5678,133.4
5681,31.3
5683,88.1
5684,99.1
5685,123.6
5686,100.1
5687,85.5
5689,107.7
5690,97.8
5692,28.8
5693,107.3
5696,167.7
5698,105.7
5699,120.6
5701,129.3
5702,82.0
5703,41.6
5704,105.3
5705,119.1
5707,120.2
5708,164.5
5714,46.8
5716,117.8
5717,93.1
5718,101.4
5720,166.8
5721,161.4
5722,158.1
5727,57.1
5728,141.5
5729,122.5
5732,109.6
5735,148.9
5736,134.3
5737,149.6
5738,49.3
5739,136.2
5741,166.1
5743,141.2
5745,155.4
5746,165.8
5749,39.1
5756,89.7
5757,141.8
5758,164.6
5760,96.3
5761,31.3
5763,128.3
5764,111.9
5765,105.0
5767,115.0
5768,165.6
5771,85.2
5772,31.3
5773,152.0
5776,130.0
5777,112.4
5778,82.1
5782,111.8
5784,46.8
5785,145.8
5787,144.7
5791,151.5
5792,109.6
5795,41.6
5797,153.8
5799,104.4
5801,143.8
5802,135.2
5804,139.5
5806,103.4
5807,51.9
5810,139.3
5811,161.3
5812,86.0
5814,124.3
5816,122.7
5818,44.2
5819,86.3
5822,83.0
5826,103.1
5828,153.3
5829,31.3
5831,83.1
5832,108.8
5836,158.8
5839,92.1
5840,28.8
5841,105.8
5843,83.6
5845,147.5
5847,134.0
5848,149.8
5850,129.0
5851,97.3
5853,33.9
5854,151.2
5858,84.1
5861,100.0
5862,114.9
5864,54.5
5868,148.1
5869,148.0
5871,145.5
5872,85.4
5873,126.2
5875,39.1
5876,160.7
5881,128.8
5882,116.3
5885,163.6
5886,41.6
5887,136.0
5888,141.6
5889,83.8
5890,120.3
5894,128.5
5896,95.0
5898,41.6
5899,109.7
5900,134.3
5902,111.1
5903,165.5
5904,114.9
5906,141.5
5909,28.8
5911,143.0
5915,99.8
5917,99.5
5918,102.4
5920,144.0
5921,26.2
5922,93.4
5926,86.8
5928,98.3
5931,166.7
5933,31.3
5934,107.8
5938,155.1
5940,125.3
5942,125.6
5944,54.5
5948,86.6
5949,148.1
5950,119.2
5951,85.7
5952,143.9
5953,134.0
5955,39.1
5961,123.5
5962,165.3
5966,39.1
5967,133.3
5973,85.5
5974,140.4
5978,39.1
5981,92.1
5982,142.1
5983,90.0
5986,154.2
5990,31.3
5992,152.7
5993,136.1
5994,166.2
5995,156.4
5996,88.8
5997,99.2
5999,155.6
6001,31.3
6003,94.5
6007,115.5
6010,90.6
6011,110.8
6012,26.2
6013,105.7
6016,111.1
6018,86.0
6019,96.0
6021,116.3
6024,46.8
6025,98.0
6032,92.3
6034,133.1
6035,39.1
6038,116.7
6039,107.4
6041,121.1
6042,140.8
6043,166.9
6044,94.6
6045,109.0
6046,36.5
6048,133.7
6049,122.5
6050,82.6
6051,123.1
6052,105.4
6059,31.3
6065,143.2
6067,107.5
6069,144.5
6070,26.2
6071,164.4
6073,86.9
6076,127.7
6078,158.7
6079,148.4
6080,161.0
6081,26.2
6083,159.0
6089,88.9
6090,146.6
6091,106.9
6092,21.0
6094,146.1
6095,152.8
6097,131.2
6099,144.7
6100,131.6
6101,118.2
6103,150.2
6104,41.6
6105,151.1
6107,167.8
6108,93.4
6109,117.0
6112,103.3
6113,142.5
6114,131.6
6115,161.4
6116,36.5
6117,113.2
6118,166.0
6119,93.9
6120,115.1
6122,145.6
6124,107.9
6127,33.9
6128,93.2
6130,123.8
6132,129.8
6135,120.6
6136,100.6
6138,28.8
6141,115.4
6142,116.5
6145,110.4
6146,151.9
6148,115.8
6150,28.8
6152,85.6
6154,116.0
6157,119.3
6161,31.3
6162,82.7
6163,85.8
6166,144.9
6167,158.3
6169,89.5
6171,136.5
6172,23.6
6173,104.9
6177,82.7
6178,128.9
6180,92.4
6181,155.9
6184,44.2
6191,132.5
6192,132.9
6196,44.2
6197,167.0
6198,87.0
6199,145.7
6203,137.0
6204,94.3
6206,93.6
6207,39.1
6214,134.3
6217,111.2
6218,31.3
6219,141.2
6221,148.0
6223,121.6
6225,113.9
6227,122.2
6228,133.4
6229,101.9
6230,28.8
6235,91.6
6238,137.8
6240,98.1
6241,36.5
6244,115.7
6247,86.3
6248,143.6
6250,119.0
6251,93.4
6252,165.2
6253,26.2
6258,112.0
6261,152.1
6264,46.8
6265,124.4
6268,107.4
6269,109.7
6272,151.8
6273,166.4
6274,132.8
6276,51.9
6279,93.8
6280,109.4
6281,146.3
6284,164.8
6287,41.6
6290,106.2
6298,33.9
6300,106.5
6305,110.3
6307,126.2
6308,92.7
6309,28.8
6311,83.4
6312,130.3
6313,143.8
6314,133.2
6315,111.9
6316,112.1
6319,100.2
6321,158.2
6322,41.6
6333,36.5
6335,154.7
6336,147.5
6337,116.2
6339,116.9
6340,156.6
6341,133.4
6342,141.0
6343,94.8
6344,49.3
6345,124.4
6346,124.6
6349,109.1
6351,117.0
6355,46.8
6362,83.0
6364,165.4
6365,117.1
6366,151.7
6367,33.9
6372,154.3
6373,108.6
6375,118.4
6378,28.8
6382,120.5
6383,107.5
6384,156.3
6385,95.3
6386,118.3
6390,23.6
6394,161.2
6397,83.4
6402,39.1
6404,98.9
6405,150.8
6406,87.4
6408,125.3
6410,84.3
6412,114.2
6413,39.1
6414,99.1
6416,82.4
6419,119.9
6420,140.4
6422,136.6
6423,89.8
6424,46.8
6426,124.7
6427,90.1
6428,118.4
6429,111.8
6430,119.8
6433,87.3
6435,39.1
6438,93.1
6439,104.0
6440,88.5
6441,103.1
6443,110.1
6445,120.0
6446,104.8
6447,143.0
6448,31.3
6449,165.3
6450,144.9
6451,113.4
6452,90.3
6453,151.8
6457,141.7
6458,166.9
6459,26.2
6467,122.2
6470,23.6
6474,86.7
6476,144.2
6481,49.3
6482,92.6
6483,162.3
6484,88.9
6485,137.3
6487,127.1
6488,131.5
6490,116.2
6491,164.9
6492,162.6
6493,46.8
6494,154.9
6495,116.8
6496,100.5
6497,110.4
6499,158.1
6500,129.6
6504,44.2
6506,98.8
6507,109.7
6508,134.2
6509,104.7
6510,139.7
6512,121.6
6516,39.1
6517,129.0
6518,82.6
6519,141.1
6520,86.2
6525,98.0
6528,28.8
6531,102.9
6532,146.2
6534,123.1
6535,122.8
6537,144.9
6538,128.6
6539,26.2
6540,103.0
6542,82.5
6543,137.2
6545,130.5
6546,96.1
6547,133.9
6548,119.2
6550,31.3
6552,102.8
6556,98.3
6557,152.3
6559,141.4
6561,54.5
6563,133.9
6564,123.2
6565,149.6
6566,93.5
6567,130.6
6573,44.2
6574,156.0
6576,106.9
6578,85.4
6579,156.7
6580,161.3
6581,109.7
6583,147.6
6585,41.6
6586,152.1
6587,162.4
6590,159.0
6592,121.6
6596,44.2
6598,135.1
6600,133.1
6601,98.1
6604,96.2
6606,122.7
6607,31.3
6608,102.4
6612,162.2
6614,95.7
6615,144.0
6617,156.6
6618,138.0
6619,28.8
6620,86.0
6621,102.5
6624,97.7
6625,131.5
6626,103.6
6630,28.8
6631,167.3
6632,87.6
6638,135.0
6639,101.6
6640,150.7
6641,51.9
6642,126.4
6643,107.2
6644,100.3
6649,107.5
6651,138.7
6652,134.0
6653,41.6
6654,127.2
6655,158.5
6656,82.8
6657,139.8
6661,110.5
6664,109.6
6665,33.9
6671,89.2
6675,154.5
6676,33.9
6678,141.3
6681,92.9
6683,115.5
6687,26.2
6688,160.7
6689,120.1
6690,119.5
6691,141.3
6694,135.5
6695,99.3
6697,164.5
6698,92.7
6699,33.9
6701,82.3
6703,153.6
6704,149.8
6707,166.7
6708,100.4
6709,95.3
6710,31.3
6711,148.5
6712,119.2
6713,135.8
6714,149.0
6717,160.6
6718,124.4
6719,122.2
6721,100.8
6722,49.3
6724,162.8
6726,117.6
6728,144.4
6729,142.2
6730,84.9
6732,116.3
6733,41.6
6735,161.9
6739,144.8
6743,84.4
6744,151.0
6745,33.9
6750,82.3
6752,130.0
6754,86.5
6756,31.3
6759,114.5
6762,85.0
6765,134.8
6767,31.3
6768,96.6
6773,125.3
6776,108.2
6778,36.5
6779,136.2
6780,89.3
6783,152.9
6785,137.1
6786,150.0
6787,107.6
6788,86.6
6791,26.2
6794,159.2
6798,105.2
6800,140.1
6801,156.7
6802,44.2
6803,122.7
6805,147.2
6806,125.5
6807,118.8
6813,46.8
6817,118.1
6818,113.9
6819,161.6
6822,154.4
6824,41.6
6826,119.0
6829,95.8
6831,154.5
6832,103.1
6833,116.8
6835,151.2
6836,33.9
6837,139.0
6841,112.7
6843,154.8
6845,151.6
6848,31.3
6849,116.7
6850,164.1
6853,104.6
6854,117.4
6855,88.1
6857,131.3
6859,39.1
6860,105.0
6863,133.2
6865,137.5
6871,28.8
6873,100.0
6875,127.0
6876,100.7
6877,132.5
6878,148.2
6879,140.4
6882,39.1
6885,146.4
6886,154.1
6893,41.6
6894,142.9
6896,154.4
6897,133.4
6899,88.7
6901,133.5
6902,142.7
6904,28.8
6906,118.7
6907,132.7
6908,135.3
6912,109.1
6915,109.0
6916,156.5
6917,21.0
6918,133.4
6922,150.8
6923,99.8
6927,152.8
6928,28.8
6931,148.7
6932,119.5
6933,100.6
6934,93.3
6937,101.1
6939,46.8
6945,132.8
6947,158.8
6949,90.7
6950,39.1
6951,90.7
6952,143.8
6954,132.4
6956,162.4
6958,127.9
6959,138.0
6960,138.8
6961,160.3
6962,46.8
6964,110.3
6967,106.8
6969,162.2
6970,101.6
6971,83.4
6972,142.2
6973,44.2
6974,97.7
6976,120.7
6978,145.8
6979,166.9
6980,157.3
6985,31.3
6986,93.8
6989,98.6
6990,132.9
6991,127.7
6992,160.7
6993,162.8
6994,107.8
6996,23.6
6998,153.1
7000,161.9
7002,95.9
7003,116.2
7005,121.7
7006,125.3
7007,124.3
7008,21.0
7010,154.9
7012,148.6
7013,127.3
7015,160.2
7016,93.1
7017,120.7
7019,39.1
7024,137.3
7025,137.8
7027,87.0
7028,138.5
7029,165.6
7030,39.1
7031,107.0
7032,115.4
7033,86.3
7035,142.0
7039,166.9
7042,44.2
7046,99.2
7049,144.2
7051,131.5
7052,113.8
7054,39.1
7057,108.3
7062,146.3
7064,131.4
7065,26.2
7067,128.1
7068,156.8
7071,105.3
7072,84.1
7075,140.4
7076,21.0
7078,126.3
7082,141.1
7084,135.6
7088,15.9
7092,130.8
7094,150.5
7095,98.6
7096,140.3
7098,102.8
7099,41.6
7100,82.3
7102,135.4
7106,161.0
7108,95.3
7110,36.5
7111,116.0
7113,92.3
7122,36.5
7123,154.2
7125,87.1
7126,157.7
7128,117.9
7129,115.0
7130,93.4
7131,90.5
7134,31.3
7137,109.7
7140,159.5
7141,145.0
7145,18.5
7146,140.9
7148,116.9
7150,105.9
7155,124.9
7156,13.3
7158,161.7
7159,163.4
7165,109.7
7166,146.6
7167,112.8
7168,10.8
7173,124.4
7175,90.6
7176,165.1
7179,36.5
7183,103.9
7187,119.1
7188,82.5
7189,86.5
7190,127.0
7191,33.9
7193,111.0
7194,149.7
7195,117.7
7196,127.7
7197,93.4
7199,140.8
7200,112.7
7202,31.3
7203,117.7
7205,112.3
7206,110.0
7207,95.2
7208,158.7
7209,156.1
7210,104.4
7211,148.2
7212,132.6
7214,28.8
7216,122.6
7222,107.5
7223,94.4
7224,154.9
7225,18.5
7228,99.3
7229,127.5
7230,160.4
7232,167.8
7233,83.5
7234,148.7
7235,153.9
7236,21.0
7237,152.6
7238,156.6
7243,144.8
7244,120.9
7248,26.2
7250,164.4
7251,117.1
7254,85.9
7260,49.3
7261,135.5
7262,151.7
7266,105.0
7267,160.8
7268,126.1
7270,117.4
7271,39.1
7277,96.9
7278,150.6
7279,110.6
7280,86.2
7281,134.6
7282,31.3
7284,128.0
7287,84.6
7288,134.3
7289,157.0
7290,146.2
7292,100.3
7293,23.6
7297,139.4
7299,83.0
7303,148.2
7304,136.9
7305,15.9
7307,152.8
7312,122.9
7314,123.7
7315,154.6
7317,26.2
7320,152.6
7321,131.5
7322,123.9
7326,154.3
7327,111.0
7328,23.6
7331,95.1
7333,105.1
7334,100.0
7336,115.5
7340,41.6
7341,105.2
7342,83.1
7344,109.3
7345,85.6
7351,33.9
7353,99.6
7355,146.8
7356,114.5
7358,141.5
7359,107.7
7362,28.8
7363,125.8
7364,166.6
7365,131.3
7367,124.9
7369,137.0
7370,101.2
7373,26.2
7374,103.6
7375,83.6
7376,111.0
7377,153.2
7380,147.5
7382,85.9
7383,138.6
7385,119.2
7386,23.6
7388,96.5
7389,135.1
7391,105.2
7393,138.0
7396,151.6
7397,36.5
7398,85.8
7399,102.1
7404,89.7
7405,160.4
7406,133.6
7407,147.6
7408,31.3
7410,110.6
7412,106.1
7415,154.4
7416,83.5
7418,98.4
7419,44.2
7421,108.8
7425,85.5
7426,90.3
7427,146.0
7428,139.2
7431,39.1
7433,122.5
7440,127.8
7441,121.6
7442,26.2
7448,134.4
7451,164.2
7452,91.8
7453,108.6
7454,18.5
7455,126.2
7457,118.6
7459,105.0
7460,160.2
7462,127.0
7465,23.6
7469,95.7
7470,82.3
7472,126.9
7474,144.3
7475,154.2
7476,109.5
7477,44.2
7478,137.2
7479,157.1
7480,141.9
7481,151.3
7483,105.8
7487,131.1
7488,36.5
7490,95.7
7491,137.6
7494,100.9
7499,41.6
7506,165.5
7510,118.9
7511,33.9
7512,145.4
7514,113.0
7519,129.2
7521,143.6
7522,147.1
7523,21.0
7524,96.3
7526,118.1
7527,123.3
7530,161.8
7534,18.5
7536,100.0
7541,155.0
7544,120.1
7545,21.0
7548,142.2
7549,115.0
7555,97.6
7557,39.1
7559,132.8
7565,138.5
7567,137.2
7568,28.8
7569,140.6
7571,114.0
7572,166.4
7576,127.5
7577,158.8
7580,36.5
7585,147.7
7586,122.3
7589,125.1
7591,33.9
7592,107.4
7594,94.6
7600,114.8
7601,113.1
7602,111.2
7603,23.6
7605,108.9
7610,135.6
7614,21.0
7615,133.1
7617,84.0
7619,118.2
7622,95.1
7623,93.5
7625,23.6
7628,144.3
7632,100.9
7635,122.7
7636,41.6
7637,120.7
7640,125.2
7642,131.8
7643,166.3
7644,158.0
7645,101.6
7646,140.4
7649,31.3
7650,131.3
7651,85.1
7652,151.9
7653,147.6
7656,118.8
7657,152.9
7658,157.1
7660,31.3
7661,143.4
7663,136.0
7666,120.5
7668,139.7
7669,129.5
7670,151.7
7671,26.2
7674,166.7
7676,132.0
7679,142.5
7680,88.1
7682,150.0
7683,28.8
7686,118.2
7687,109.0
7691,99.4
7694,26.2
7696,127.1
7697,167.0
7698,157.6
7699,128.8
7700,135.7
7701,85.4
7702,120.9
7704,100.1
7705,18.5
7708,126.2
7709,112.3
7710,87.6
7711,124.5
7714,87.0
7716,132.0
7717,39.1
7718,113.8
7721,166.9
7722,147.5
7723,135.9
7726,96.4
7727,153.1
7729,33.9
7732,100.1
7734,104.7
7736,126.0
7737,117.3
7738,127.2
7740,28.8
7744,156.1
7746,164.5
7747,140.9
7748,116.3
7751,28.8
7752,95.0
7753,133.1
7754,140.6
7755,97.5
7756,162.5
7757,149.6
7759,133.8
7760,136.4
7761,110.7
7762,26.2
7763,89.6
7766,157.6
7768,129.0
7771,95.3
7773,130.8
7774,21.0
7777,149.9
7778,127.0
7779,115.3
7783,138.4
7786,15.9
7787,147.6
7791,125.9
7792,93.5
7795,151.5
7796,137.8
7797,39.1
7799,124.0
7800,160.7
7802,115.4
7804,147.4
7805,165.1
7806,85.2
7808,92.2
7809,39.1
7812,121.1
7816,93.3
7817,123.4
7820,31.3
7821,94.6
7822,129.7
7824,115.3
7826,134.2
7828,101.9
7830,105.6
7831,28.8
7832,142.8
7835,139.0
7839,155.1
7840,138.9
7842,18.5
7846,134.2
7848,121.1
7850,86.0
7851,143.4
7854,85.8
7855,23.6
7856,124.2
7857,121.6
7858,134.8
7859,156.2
7861,149.3
7862,156.4
7864,167.7
7865,98.4
7866,13.3
7867,112.5
7869,120.4
7870,150.8
7871,120.0
7876,145.6
7877,36.5
7886,147.9
7888,33.9
7889,154.2
7891,138.6
7893,157.7
7895,90.6
7900,31.3
7902,110.3
7905,136.4
7907,140.6
7909,148.0
7911,21.0
7914,119.8
7915,159.8
7917,112.7
7918,137.4
7923,18.5
7924,127.1
7926,135.1
7928,140.1
7929,145.6
7931,126.4
7934,23.6
7936,143.1
7937,106.1
7938,85.8
7940,113.6
7944,125.8
7945,100.0
7946,23.6
7948,165.6
7954,108.8
7957,39.1
7960,108.5
7961,123.6
7962,86.4
7965,161.1
7966,90.8
7967,95.1
7968,36.5
7970,101.5
7972,137.7
7974,109.8
7975,86.2
7976,116.5
7977,167.2
7978,91.8
7979,136.0
7980,115.8
7981,23.6
7982,162.4
7984,127.9
7986,88.4
7988,85.2
7991,136.9
7992,15.9
7994,157.5
7996,120.7
7997,120.4
7999,86.6
8003,15.9
8005,157.9
8006,102.0
8010,165.7
8012,151.2
8013,136.0
8014,26.2
8015,112.7
8016,126.1
8017,104.7
8020,166.0
8023,131.4
8024,107.2
8025,160.7
8026,26.2
8034,167.1
8035,152.5
8037,36.5
8038,118.4
8041,155.6
8042,164.0
8048,152.0
8049,36.5
8050,87.7
8051,100.7
8052,93.6
8053,109.5
8055,100.8
8057,124.9
8058,138.9
8059,156.7
8060,21.0
8063,112.5
8067,163.3
8072,10.8
8073,113.5
8074,142.8
8075,95.8
8077,160.3
8080,139.6
8081,139.0
8083,13.3
8084,102.1
8085,125.8
8087,164.7
8090,148.6
8093,99.9
8094,31.3
8095,85.2
8096,130.6
8100,89.6
8102,130.1
8104,161.3
8105,21.0
8107,138.9
8108,137.3
8109,167.6
8110,101.5
8111,97.1
8112,89.8
8113,155.5
8115,145.3
8117,87.9
8118,33.9
8119,111.8
8122,145.5
8124,128.2
8125,132.1
8126,150.6
8127,84.1
8129,31.3
8130,122.1
8134,99.8
8140,18.5
8142,107.1
8143,115.0
8144,122.5
8145,103.9
8146,97.2
8152,13.3
8153,92.5
8154,145.9
8155,131.2
8156,128.9
8157,137.9
8158,161.3
8160,123.9
8161,145.7
8162,161.4
8163,13.3
8167,134.4
8168,118.5
8170,120.0
8173,111.0
8174,33.9
8177,163.6
8178,159.2
8180,88.6
8186,28.8
8189,139.1
8190,116.8
8193,129.5
8196,137.5
8197,163.1
8198,31.3
8199,158.6
8200,90.5
8202,149.7
8203,107.8
8207,105.5
8209,26.2
8213,123.2
8214,142.1
8215,87.0
8216,132.8
8218,152.3
8220,18.5
8225,99.5
8229,123.9
8231,18.5
8232,120.7
8234,84.2
8235,167.7
8236,132.9
8237,143.8
8240,92.8
8241,116.8
8243,23.6
8246,139.1
8248,167.7
8250,165.5
8252,148.3
8253,84.5
8255,44.2
8257,95.0
8258,164.7
8263,136.6
8265,165.4
8266,33.9
8272,146.4
8274,131.5
8278,26.2
8279,137.5
8280,115.1
8284,152.4
8285,92.0
8286,158.6
8287,117.7
8289,23.6
8291,120.9
8293,92.6
8295,146.2
8297,167.1
8298,117.6
8300,13.3
8303,163.9
8304,82.1
8306,167.8
8309,146.2
8311,160.7
8312,15.9
8314,105.9
8315,151.8
8319,161.3
8321,93.6
8322,155.0
8324,10.8
8325,93.0
8326,140.5
8330,166.2
8332,105.1
8333,132.6
8334,85.4
8335,36.5
8336,159.4
8337,100.0
8338,119.6
8340,118.4
8342,101.0
8344,118.2
8346,31.3
8347,112.8
8350,145.7
8352,90.1
8353,156.3
8354,134.8
8357,23.6
8358,110.2
8359,136.7
8362,105.7
8364,116.7
8366,105.6
8368,84.3
8369,21.0
8373,96.1
8374,103.1
8376,155.8
8378,87.4
8379,108.1
8380,116.0
8381,18.5
8382,113.0
8386,157.8
8387,94.0
8390,151.6
8391,152.0
8392,18.5
8394,91.5
8398,115.0
8401,124.1
8403,15.9
8406,93.0
8408,100.8
8409,130.8
8411,149.3
8412,112.7
8413,159.8
8414,114.8
8415,33.9
8418,134.7
8426,26.2
8432,110.8
8434,132.1
8437,18.5
8438,95.6
8439,97.7
8440,140.9
8441,114.3
8442,157.7
8444,151.8
8445,107.7
8446,85.9
8447,100.6
8450,18.5
8451,155.8
8453,150.2
8454,152.0
8457,109.8
8458,165.7
8461,15.9
8464,145.9
8465,110.8
8468,87.5
8469,144.1
8470,99.9
8471,162.6
8472,23.6
8473,165.3
8475,149.0
8476,161.6
8477,104.0
8478,129.2
8479,123.4
8480,97.5
8482,160.3
8483,15.9
8484,101.7
8486,82.1
8488,122.3
8492,102.7
8493,102.1
8494,103.7
8495,33.9
8500,113.1
8502,114.5
8503,145.5
8504,89.2
8505,141.1
8506,28.8
8509,107.1
8511,153.3
8512,94.8
8514,90.0
8515,104.4
8516,149.2
8518,18.5
8519,121.4
8521,126.5
8523,132.7
8524,109.2
8525,87.5
8526,157.2
8528,82.7
8529,15.9
8531,83.2
8532,109.7
8533,103.0
8534,124.6
8535,119.4
8536,90.1
8539,98.7
8541,10.8
8544,142.1
8545,151.2
8546,125.2
8547,87.1
8552,26.2
8555,144.2
8557,128.1
8560,165.0
8562,89.4
8563,13.3
8567,99.7
8568,89.3
8570,89.9
8572,87.6
8574,26.2
8575,101.7
8577,123.4
8579,117.5
8585,136.3
8586,163.3
8587,23.6
8590,83.3
8591,150.7
8592,88.7
8596,121.2
8598,15.9
8601,85.9
8603,139.7
8606,136.3
8607,109.5
8609,10.8
8610,107.9
8611,110.4
8612,121.1
8615,86.5
8618,137.2
8619,138.0
8621,10.8
8624,82.2
8625,156.3
8626,152.7
8628,138.5
8629,103.0
8630,151.5
8631,88.2
8632,23.6
8633,163.0
8636,97.4
8638,145.9
8641,83.1
8643,13.3
8646,84.9
8650,97.9
8652,86.7
8655,23.6
8656,164.5
8658,119.1
8659,110.8
8664,137.6
8665,163.0
8667,31.3
8668,160.3
8671,83.6
8675,110.1
8678,23.6
8679,153.5
8680,96.5
8682,145.7
8685,90.2
8686,149.8
8689,15.9
8690,84.3
8691,117.2
8695,85.2
8699,109.1
8700,15.9
8702,104.0
8703,145.5
8705,130.7
8707,83.6
8708,166.5
8709,116.6
8712,158.8
8713,31.3
8714,99.7
8719,145.7
8720,94.1
8721,93.7
8723,93.8
8724,21.0
8730,85.2
8733,167.2
8734,102.0
8735,23.6
8736,166.0
8737,93.2
8739,139.2
8743,86.1
8746,114.5
8747,26.2
8754,138.3
8755,90.2
8758,15.9
8761,139.0
8763,134.8
8765,86.0
8767,88.5
8769,5.6
8773,147.2
8774,104.0
8775,108.4
8777,101.2
8778,90.7
8779,101.6
8780,18.5
8783,97.0
8786,97.6
8787,114.6
8789,165.7
8791,150.5
8792,28.8
8793,95.6
8796,145.0
8797,103.9
8798,153.6
8799,117.4
8802,106.4
8803,21.0
8804,92.9
8806,108.2
8813,125.1
8814,31.3
8820,107.7
8822,151.2
8825,33.9
8826,134.4
8827,118.8
8830,82.4
8831,104.7
8837,23.6
8841,126.0
8842,118.9
8844,105.0
8845,146.1
8846,144.8
8849,13.3
8851,132.2
8853,112.7
8855,119.6
8856,121.0
8859,139.6
8860,10.8
8861,135.8
8862,156.6
8864,102.9
8865,138.9
8869,129.3
8871,23.6
8872,135.8
8877,97.3
8878,122.6
8879,102.0
8881,116.8
8882,148.6
8883,26.2
8884,110.8
8887,97.3
8890,115.0
8892,164.5
8894,33.9
8895,113.9
8897,110.6
8898,154.8
8900,105.0
8903,147.7
8904,115.5
8905,31.3
8907,95.6
8909,149.7
8911,157.0
8913,125.9
8917,135.3
8918,23.6
8920,117.8
8921,107.8
8924,104.9
8926,149.3
8928,113.8
8929,13.3
8930,103.4
8931,155.0
8932,142.0
8933,95.7
8937,157.5
8938,148.9
8940,13.3
8942,163.6
8943,161.4
8944,115.9
8945,143.9
8950,139.4
8951,28.8
8952,111.1
8954,130.3
8955,142.1
8959,142.2
8960,117.1
8962,147.5
8963,26.2
8965,157.7
8966,131.6
8967,158.4
8968,146.3
8969,95.3
8971,99.4
8973,160.3
8974,26.2
8975,146.9
8979,115.4
8982,161.4
8983,95.0
8986,21.0
8993,90.9
8994,122.8
8995,95.5
8997,18.5
8998,121.4
9001,137.5
9004,162.3
9008,163.8
9009,10.8
9012,146.1
9014,129.0
9015,101.3
9016,105.3
9020,10.8
9030,162.9
9031,31.3
9032,106.6
9033,129.2
9042,28.8
9043,125.0
9044,118.9
9046,139.5
9047,84.2
9051,149.5
9055,23.6
9057,115.8
9058,128.3
9059,107.5
9062,122.5
9063,136.9
9065,135.0
9066,15.9
9068,146.7
9069,147.3
9071,149.7
9072,88.6
9076,90.3
9077,8.2
9078,156.0
9080,139.9
9081,125.0
9083,90.7
9084,159.1
9085,126.3
9087,98.9
9088,3.0
9090,121.7
9092,84.5
9093,84.0
9094,151.4
9096,122.8
9097,114.6
9098,15.9
9099,122.6
9100,96.3
9102,153.4
9105,82.3
9109,23.6
9111,90.2
9114,128.1
9115,118.4
9118,123.4
9119,129.6
9121,18.5
9122,143.2
9123,129.8
9126,94.0
9127,144.9
9128,131.4
9130,92.1
9132,166.2
9133,31.3
9143,166.2
9144,23.6
9145,116.2
9149,98.9
9150,148.1
9151,149.3
9154,120.0
9155,13.3
9156,97.8
9159,137.3
9160,154.1
9161,146.4
9162,167.3
9163,136.4
9165,115.4
9166,8.2
9167,142.4
9168,111.6
9169,116.9
9174,160.9
9175,98.4
9176,91.4
9177,93.9
9178,10.8
9181,162.0
9184,156.0
9189,10.8
9192,132.6
9193,159.3
9195,83.0
9196,116.0
9197,131.2
9198,125.5
9199,139.2
9200,5.6
9201,167.4
9202,91.4
9203,137.2
9204,142.4
9210,23.6
9212,115.0
9217,107.1
9221,121.6
9222,15.9
9223,135.4
9225,120.8
9231,139.8
9232,117.4
9233,15.9
9235,158.5
9236,101.3
9241,110.3
9242,133.6
9243,84.8
9245,18.5
9246,164.2
9247,91.2
9255,112.1
9256,13.3
9257,148.5
9258,84.4
9259,116.5
9261,143.8
9262,130.8
9264,105.4
9265,132.3
9266,147.5
9268,8.2
9270,89.0
9271,101.5
9272,105.4
9274,105.4
9275,123.0
9278,5.6
9279,139.3
9282,153.7
9286,138.5
9288,5.6
9290,99.6
9291,141.0
9293,127.9
9295,90.6
9296,85.9
9298,0.5
9302,130.4
9303,150.6
9307,104.8
9308,144.6
9309,13.3
9310,164.1
9311,156.4
9313,124.5
9314,100.6
9315,88.4
9316,103.6
9317,128.8
9321,15.9
9323,90.9
9329,82.9
9330,106.3
9331,138.3
9332,23.6
9333,132.8
9335,138.6
9338,148.4
9342,86.1
9343,108.8
9344,18.5
9345,159.3
9347,95.9
9350,160.4
9351,94.9
9352,130.3
9353,157.8
9355,8.2
9356,155.4
9357,161.6
9358,116.8
9360,128.8
9365,5.6
9366,84.8
9367,165.0
9368,157.4
9373,133.8
9375,103.2
9376,3.0
9378,94.4
9379,164.1
9381,148.2
9386,104.2
9387,3.0
9389,159.0
9390,162.4
9391,108.0
9392,104.5
9393,95.4
9394,87.2
9397,8.2
9398,109.5
9399,88.4
9400,87.3
9403,123.1
9406,166.7
9407,5.6
9409,90.3
9410,154.0
9411,161.8
9413,90.6
9414,161.2
9415,114.9
9416,88.9
9417,3.0
9421,149.7
9425,90.5
9427,5.6
9428,142.4
9429,89.4
9433,124.6
9434,99.5
9435,93.6
9437,142.7
9438,8.2
9439,132.1
9441,108.6
9444,154.9
9445,83.4
9447,93.6
9449,15.9
9454,159.9
9460,13.3
9461,139.5
9463,82.4
9465,165.5
9469,126.8
9470,151.1
9472,23.6
9473,89.6
9474,89.9
9475,93.4
9478,127.9
9479,155.2
9481,107.7
9483,21.0
9484,93.8
9486,123.7
9487,142.0
9488,148.4
9489,134.3
9490,165.4
9492,123.0
9494,10.8
9495,125.9
9496,124.2
9498,107.3
9505,3.0
9508,118.9
9509,134.0
9510,102.5
9511,149.8
9513,88.9
9516,160.9
9517,3.0
9518,124.9
9519,134.9
9521,91.6
9522,166.8
9523,92.5
9524,131.7
9527,-2.1
9529,106.6
9532,103.5
9533,95.1
9535,112.0
9536,157.4
9538,8.2
9540,88.5
9541,102.4
9543,161.1
9544,100.7
9546,86.4
9547,133.3
9548,21.0
9549,119.3
9554,138.9
9557,115.4
9560,13.3
9561,117.0
9563,103.8
9564,111.6
9565,96.4
9566,109.8
9567,147.2
9570,124.7
9571,15.9
9575,108.8
9576,88.5
9578,93.9
9582,113.2
9583,15.9
9584,123.8
9588,151.6
9591,162.3
9592,122.1
9593,128.7
9594,5.6
9595,142.6
9598,105.7
9602,127.2
9603,160.2
9604,118.6
9605,5.6
9606,134.0
9607,125.6
9609,166.4
9611,133.4
9612,166.4
9615,8.2
9617,84.6
9620,91.1
9625,3.0
9626,167.2
9628,142.3
9632,111.3
9634,120.8
9635,5.6
9636,162.8
9637,160.9
9641,99.9
9644,113.3
9646,125.4
9647,0.5
9650,158.2
9654,155.2
9655,97.8
9657,10.8
9659,136.9
9660,89.4
9661,95.4
9662,116.8
9664,147.4
9668,21.0
9669,113.1
9670,113.6
9674,104.3
9675,157.2
9676,123.0
9677,139.0
9679,18.5
9680,89.1
9684,155.9
9686,138.2
9691,26.2
9692,105.6
9693,154.1
9696,82.4
9698,152.4
9699,125.8
9701,164.2
9702,21.0
9703,118.2
9706,97.5
9708,85.5
9709,142.2
9714,8.2
9718,120.3
9720,151.5
9724,8.2
9728,157.4
9729,82.3
9730,136.9
9732,151.9
9734,117.2
9735,3.0
9737,133.6
9738,139.8
9743,167.0
9745,0.5
9747,151.2
9748,90.6
9754,93.7
9755,3.0
9756,94.1
9759,122.6
9760,96.5
9761,125.1
9762,91.6
9763,112.2
9764,150.2
9765,3.0
9766,95.9
9767,101.7
9768,129.5
9769,97.6
9771,129.8
9776,106.4
9777,-2.1
9778,128.1
9779,122.5
9784,156.5
9785,127.2
9788,13.3
9791,112.8
9793,134.1
9794,133.2
9795,84.7
9796,105.5
9797,85.4
9798,146.6
9799,5.6
9800,105.0
9803,134.1
9806,92.0
9809,15.9
9812,114.1
9814,149.2
9815,142.6
9816,162.5
9817,111.8
9819,84.6
9820,155.4
9821,15.9
9822,148.6
9823,98.7
9829,165.2
9831,163.2
9832,10.8
9840,161.8
9843,96.2
9844,5.6
9846,137.3
9847,132.9
9848,161.4
9849,82.7
9851,161.9
9853,106.9
9854,0.5
9855,137.0
9857,162.5
9859,112.9
9861,124.1
9865,-2.1
9866,166.3
9867,133.5
9869,121.9
9871,102.7
9872,93.0
9873,128.5
9874,155.2
9875,84.0
9876,0.5
9877,107.8
9878,135.5
9879,160.3
9881,143.3
9883,110.3
9886,8.2
9888,107.9
9890,134.7
9891,157.0
9892,92.9
9894,147.5
9895,147.4
9896,-2.1
9897,90.2
9898,138.4
9900,106.8
9903,129.8
9905,150.8
9906,106.8
9908,18.5
9909,158.0
9912,93.1
9913,85.1
9914,89.3
9919,125.9
9920,15.9
9921,129.8
9922,134.5
9925,83.9
9926,101.1
9928,111.6
9931,10.8
9934,166.4
9935,130.1
9936,143.1
9937,84.1
9939,167.6
9941,122.0
9943,8.2
9945,132.3
9946,91.9
9947,94.5
9949,101.1
9952,138.8
9953,3.0
9956,144.4
9957,143.8
9958,103.5
9959,160.9
9963,3.0
9966,102.6
9967,144.0
9969,133.3
9970,83.2
9972,152.0
9973,3.0
9974,129.5
9980,164.4
9982,160.7
9985,-2.1
9986,149.4
9990,132.9
9991,108.3
9992,148.1
9995,128.8
9996,-7.2
9998,105.9
9999,131.5
10001,145.3
10002,153.7
10006,133.8
10007,8.2
10011,119.0
10014,136.8
10015,141.3
10017,112.9
10018,5.6
10021,95.2
10022,134.3
10023,128.7
10025,83.3
10026,87.7
10030,5.6
10032,86.2
10038,110.5
10039,121.5
10040,102.1
10041,147.0
10042,8.2
10046,113.9
10047,158.9
10048,89.1
10050,109.4
10052,120.2
10053,3.0
10054,90.0
10057,101.1
10058,139.1
10059,87.9
10060,132.5
10061,129.5
10062,94.0
10063,100.9
10064,-4.7
10067,83.8
10068,106.1
10069,123.2
10070,116.3
10071,134.8
10073,137.1
10074,155.0
10075,107.4
10077,-4.7
10081,107.9
10082,148.6
10084,124.9
10085,160.2
10088,109.8
10089,8.2
10091,157.4
10092,82.8
10094,106.3
10097,97.8
10098,146.0
10099,159.5
10100,8.2
10103,97.0
10104,107.9
10105,82.4
10106,84.7
10112,88.9
10113,3.0
10115,143.0
10117,108.5
10119,143.9
10122,111.4
10123,163.0
10124,-4.7
10126,116.3
10127,91.3
10132,128.0
10133,109.1
10134,106.2
10135,164.3
10136,-2.1
10137,161.8
10138,115.0
10144,153.7
10148,13.3
10161,5.6
10162,130.4
10163,114.6
10164,95.9
10165,96.2
10168,120.9
10169,102.6
10170,147.6
10171,101.1
10172,-2.1
10173,94.4
10174,150.4
10175,140.1
10177,107.0
10178,97.6
10180,101.1
10181,89.1
10182,137.0
10184,161.3
10185,-2.1
10187,94.0
10190,115.3
10191,86.0
10192,83.7
10193,153.2
10195,134.0
10196,115.7
10197,159.8
10198,0.5
10200,141.4
10201,133.6
10204,120.1
10206,90.5
10207,107.4
10209,13.3
10212,95.5
10213,93.9
10219,93.3
10221,8.2
10222,108.0
10223,117.0
10224,128.6
10226,148.1
10227,159.8
10228,112.9
10230,102.7
10232,-4.7
10233,97.1
10238,116.9
10239,134.0
10240,122.8
10241,167.2
10242,82.4
10244,101.0
10246,0.5
10248,92.9
10249,112.5
10254,84.8
10257,0.5
10259,100.5
10260,154.2
10261,132.4
10262,125.0
10264,108.0
10265,149.1
10266,152.6
10268,13.3
10270,82.7
10271,95.0
10272,117.9
10277,139.7
10278,86.2
10279,131.6
10280,8.2
10282,137.3
10284,100.2
10289,135.2
10292,-4.7
10293,124.1
10294,123.9
10296,133.9
10299,82.2
10301,137.6
10302,97.8
10303,132.0
10304,-4.7
10305,111.4
10306,90.6
10308,94.6
10311,154.4
10313,114.4
10316,143.7
10317,0.5
10321,106.1
10322,124.3
10324,126.2
10325,113.7
10328,165.4
10329,8.2
10332,108.6
10333,144.5
10334,131.8
10335,135.5
10338,159.3
10339,101.5
10340,8.2
10343,106.6
10344,149.0
10348,144.5
10349,166.1
10351,0.5
10352,93.8
10356,102.2
10358,164.8
10361,138.0
10362,-7.2
10364,122.3
10365,160.8
10369,128.0
10370,88.5
10372,110.5
10375,106.9
10376,-12.4
10378,145.1
10379,154.1
10383,120.2
10384,149.3
10386,92.2
10387,107.4
10389,0.5
10390,147.1
10394,98.8
10395,134.8
10400,3.0
10402,160.5
10403,161.1
10404,139.6
10405,165.8
10406,118.8
10408,118.2
10409,118.8
10412,-9.8
10418,87.0
10419,97.2
10423,122.5
10424,-4.7
10426,159.1
10427,118.0
10429,92.8
10430,149.4
10431,95.8
10433,89.4
10434,142.2
10435,109.6
10436,-4.7
10441,129.1
10443,117.0
10446,88.4
10449,-7.2
10454,144.0
10457,87.1
10459,93.4
10462,-9.8
10463,88.0
10467,91.8
10468,123.1
10470,129.1
10471,161.8
10472,84.1
10474,-9.8
10475,136.1
10476,123.1
10478,118.8
10480,110.8
10481,93.7
10484,99.1
10486,10.8
10488,123.8
10489,128.4
10491,132.4
10492,88.2
10495,93.9
10496,152.4
10497,126.4
10499,3.0
10501,106.5
10503,126.1
10505,117.6
10507,160.4
10508,89.2
10509,106.6
10510,95.1
10511,-7.2
10512,108.8
10516,83.9
10519,84.5
10523,-15.0
10525,146.2
10526,121.0
10528,111.0
10529,160.1
10532,131.0
10533,128.3
10535,160.1
10536,-2.1
10537,94.8
10538,102.9
10539,142.0
10540,99.8
10541,104.3
10543,111.6
10544,138.6
10545,125.2
10547,114.7
10549,-7.2
10553,134.7
10555,92.9
10561,-15.0
10563,123.2
10565,164.9
10566,143.4
10568,90.9
10571,138.7
10575,-15.0
10579,99.3
10580,140.7
10582,117.5
10584,131.0
10587,157.9
10589,-9.8
10590,111.3
10592,100.1
10593,127.0
10597,85.5
10598,90.5
10599,105.6
10600,156.9
10601,-17.5
10602,152.0
10603,151.1
10605,96.1
10607,118.8
10609,107.2
10612,119.1
10613,156.5
10614,-17.5
10616,157.4
10617,156.9
10618,113.7
10621,151.3
10622,124.0
10623,167.4
10625,109.2
10626,111.7
10627,164.8
10628,-2.1
10630,160.2
10631,124.1
10635,153.8
10636,139.8
10639,109.0
10640,-12.4
10641,146.6
10642,134.8
10644,166.1
10645,104.4
10646,120.0
10647,107.2
10650,118.6
10652,96.2
10653,152.0
10654,-20.1
10656,131.7
10658,142.9
10662,153.4
10663,83.9
10665,117.0
10666,93.9
10667,82.5
10668,-4.7
10669,117.5
10670,93.1
10672,130.8
10675,110.1
10680,-9.8
10684,127.9
10686,110.7
10687,91.4
10688,152.4
10689,86.7
10690,118.3
10692,-12.4
10695,92.9
10704,120.5
10705,3.0
10706,117.9
10708,124.3
10709,133.4
10710,101.9
10711,109.5
10712,83.9
10713,119.9
10714,148.9
10716,104.1
10718,-2.1
10719,157.5
10722,156.5
10725,88.3
10727,131.5
10728,107.9
10729,156.7
10730,-17.5
10731,138.5
10732,159.5
10733,98.0
10734,149.7
10735,107.2
10736,124.4
10737,129.3
10738,155.7
10742,162.4
10743,-12.4
10747,142.1
10749,144.8
10751,82.5
10753,160.3
10754,165.6
10755,144.2
10757,8.2
10760,121.9
10763,157.4
10765,114.1
10768,-2.1
10770,156.3
10775,107.1
10778,138.4
10779,121.5
10780,99.5
10781,-17.5
10783,137.9
10789,127.6
10790,90.1
10791,120.9
10792,140.5
10794,163.4
10795,-15.0
10799,166.7
10801,94.4
10802,102.9
10803,120.2
10808,-12.4
10810,144.9
10811,95.4
10812,86.8
10813,130.8
10815,142.5
10817,109.2
10819,143.7
10820,115.9
10821,-25.3
10822,116.4
10826,144.8
10827,83.0
10828,99.0
10829,136.2
10830,139.7
10833,155.0
10834,-7.2
10835,149.4
10839,151.5
10841,118.7
10844,82.4
10846,87.8
10848,-7.2
10849,93.9
10852,150.3
10853,95.0
10854,152.7
10858,154.3
10859,158.7
10860,-20.1
10861,143.9
10864,126.5
10866,125.3
10867,105.1
10869,115.3
10873,-17.5
10876,103.8
10881,165.0
10883,128.7
10884,99.6
10885,146.7
10887,-7.2
10888,118.4
10890,120.8
10893,131.6
10895,84.0
10897,149.9
10899,-12.4
10900,96.3
10903,166.0
10904,128.5
10906,116.9
10907,144.2
10908,136.9
10911,142.0
10912,114.8
10913,-12.4
10917,155.3
10920,137.0
10924,103.8
10927,0.5
10929,160.9
10931,158.6
10935,157.4
10938,-4.7
10939,133.5
10942,84.1
10946,166.7
10950,-17.5
10953,160.9
10954,106.1
10955,143.5
10956,86.5
10957,156.6
10958,94.5
10959,135.5
10962,147.7
10963,-2.1
10968,90.0
10971,130.5
10972,100.5
10973,86.3
10975,138.2
10976,158.5
10977,0.5
10978,82.1
10979,91.3
10980,110.5
10981,115.7
10984,122.9
10985,149.7
10986,127.6
10987,141.4
10988,-9.8
10990,142.9
10995,87.2
10998,157.5
11000,-22.7
11001,100.6
11002,127.1
11003,125.8
11005,136.9
11006,144.6
11008,85.1
11009,104.0
11011,87.9
11012,106.2
11014,-17.5
11017,105.4
11020,87.5
11022,116.9
11025,158.9
11027,-20.1
11030,111.2
11033,141.1
11034,153.7
11040,98.4
11041,-25.3
11045,136.6
11047,90.9
11048,126.3
11049,100.7
11050,108.7
11051,109.5
11052,125.5
11053,98.9
11055,-7.2
11063,135.7
11064,83.0
11067,-12.4
11068,161.3
11070,126.4
11072,109.3
11073,106.2
11075,91.5
11079,154.3
11080,-27.8
11081,120.8
11082,104.6
11084,89.8
11086,161.7
11088,85.2
11089,158.4
11090,150.0
11094,-12.4
11096,138.5
11097,116.8
11101,134.1
11103,141.7
11106,137.5
11108,-17.5
11109,99.6
11110,142.3
11111,119.5
11112,91.2
11116,126.4
11117,115.5
11120,166.4
11121,-22.7
11122,126.5
11124,118.3
11125,89.3
11126,131.1
11127,153.1
11130,115.1
11134,-4.7
11137,112.6
11140,145.3
11141,126.8
11142,139.1
11143,95.7
11145,87.6
11147,-12.4
11150,156.8
11154,143.9
11156,156.4
11158,110.6
11160,-22.7
11161,166.2
11167,99.8
11168,98.3
11169,112.7
11172,128.4
11174,-9.8
11175,132.6
11176,118.3
11179,119.8
11181,94.9
11182,113.8
11183,113.4
11185,102.6
11186,103.3
11187,-15.0
11191,138.4
11192,148.3
11193,125.8
11194,106.3
11200,-22.7
11202,115.4
11203,138.7
11204,90.1
11205,159.9
11206,142.2
11207,110.8
11211,85.7
11213,-17.5
11216,140.6
11219,128.4
11223,105.0
11227,-17.5
11229,118.6
11231,129.1
11233,134.0
11234,99.9
11239,152.1
11241,-27.8
11244,148.8
11249,82.6
11252,149.8
11254,-15.0
11255,111.3
11259,95.6
11262,153.0
11263,97.4
11267,146.8
11268,-20.1
11269,119.0
11271,130.2
11275,137.7
11276,103.9
11277,88.0
11278,113.9
11279,145.5
11280,87.3
11281,-15.0
11282,109.5
11283,157.2
11285,113.9
11286,107.8
11289,91.2
11290,102.5
11291,151.1
11294,-9.8
11295,122.2
11297,98.4
11302,160.7
11304,128.0
11307,130.5
11308,-22.7
11309,122.6
11310,158.2
11311,154.4
11312,136.9
11313,147.8
11314,101.2
11316,156.4
11317,154.6
11318,163.7
11320,150.2
11321,-25.3
11325,122.3
11326,161.1
11327,163.7
11330,92.0
11331,157.6
11332,125.1
11334,-9.8
11336,94.1
11341,93.0
11343,145.0
11346,-17.5
11347,138.1
11349,161.3
11352,99.1
11354,149.1
11356,87.3
11358,120.1
11360,-20.1
11361,89.1
11365,88.3
11366,153.1
11368,143.6
11369,106.0
11372,98.6
11373,140.1
11374,-9.8
11375,124.0
11376,158.4
11377,164.9
11379,112.0
11380,138.6
11381,155.0
11384,141.5
11386,-20.1
11395,120.4
11396,122.4
11400,-27.8
11406,147.1
11407,153.7
11408,149.4
11410,159.7
11413,-9.8
11415,162.4
11419,140.3
11422,132.1
11425,-15.0
11426,122.8
11428,114.4
11429,143.0
11432,119.4
11435,148.4
11436,116.6
11437,121.2
11438,107.5
11439,-27.8
11440,134.2
11443,144.2
11444,114.5
11446,155.5
11447,98.8
11448,149.0
11449,83.4
11450,134.9
11452,113.5
11453,-22.7
11455,95.9
11456,152.9
11457,106.2
11459,93.9
11466,-25.3
11469,140.0
11471,140.7
11474,113.3
11475,149.1
11478,135.7
11480,-27.8
11482,164.3
11483,97.7
11485,154.0
11487,131.8
11488,147.4
11493,-12.4
11494,103.0
11495,135.6
11497,83.1
11504,83.8
11505,141.6
11507,-25.3
11511,123.1
11512,102.9
11513,86.3
11514,91.8
11515,124.4
11517,137.1
11519,91.8
11521,-20.1
11522,160.1
11523,110.3
11525,146.1
11527,90.3
11530,88.0
11531,143.0
11533,160.2
11534,-17.5
11535,118.0
11537,84.6
11539,84.8
11543,116.5
11545,130.2
11547,-27.8
11548,143.7
11551,139.6
11553,154.6
11557,160.2
11559,133.4
11560,-15.0
11561,156.3
11562,161.0
11563,99.5
11564,109.4
11569,125.7
11572,143.4
11573,112.8
11574,158.9
11575,-12.4
11580,133.6
11581,91.3
11583,131.1
11584,122.6
11586,89.9
11588,-27.8
11590,103.7
11592,102.9
11593,159.1
11594,125.5
11595,117.5
11596,136.5
11599,155.4
11601,-17.5
11605,140.4
11606,102.6
11607,95.4
11615,-20.1
11622,157.4
11624,89.9
11625,167.6
11626,124.6
11627,93.9
11628,-27.8
11629,138.5
11633,118.4
11634,94.6
11635,126.6
11636,108.7
11638,128.3
11640,104.7
11642,-12.4
11643,158.5
11644,159.5
11645,167.0
11648,124.8
11654,93.1
11656,-22.7
11657,82.2
11659,151.7
11662,141.3
11663,145.2
11666,138.6
11668,83.8
11669,-33.0
11672,115.6
11673,86.3
11675,108.2
11678,146.2
11679,149.9
11682,-17.5
11683,109.5
11685,132.7
11687,130.1
11688,111.1
11689,99.9
11690,94.3
11692,157.5
11693,116.5
11695,138.0
11696,-27.8
11697,144.7
11699,157.6
11700,141.9
11701,99.0
11702,102.2
11703,159.3
11704,154.7
11707,160.2
11709,114.8
11710,-30.4
11713,143.3
11716,153.6
11717,99.3
11723,-17.5
11725,83.1
11726,160.0
11727,86.9
11728,85.2
11729,86.5
11730,152.6
11731,132.6
11732,87.7
11734,120.1
11735,91.8
11736,82.3
11737,-33.0
11744,162.9
11745,155.4
11746,127.7
11750,-27.8
11752,85.9
11753,127.3
11756,166.5
11761,101.8
11762,142.1
11763,-17.5
11764,106.0
11766,110.8
11771,157.7
11777,133.6
11778,-30.4
11780,97.5
11781,140.7
11785,135.5
11786,101.8
11788,161.4
11789,142.7
11790,136.5
11791,-22.7
11792,117.9
11795,89.6
11797,148.2
11798,115.9
11799,127.9
11801,137.3
11803,126.0
11804,-22.7
11805,151.7
11807,94.1
11808,93.8
11809,136.6
11812,126.7
11815,112.0
11816,166.6
11817,-33.0
11822,147.4
11823,108.1
11824,121.5
11827,142.0
11829,104.1
11831,-20.1
11833,121.4
11836,82.3
11837,111.9
11840,143.7
11841,88.3
11843,153.2
11844,167.8
11845,-15.0
11847,85.1
11848,112.0
11849,129.2
11852,100.2
11853,149.1
11855,103.0
11856,156.1
11857,119.2
11858,-17.5
11859,162.0
11863,134.0
11864,135.2
11867,107.0
11869,94.0
11870,130.0
11872,-9.8
11873,166.9
11874,146.2
11876,94.0
11877,118.3
11878,102.0
11884,-20.1
11886,167.9
11887,145.1
11890,112.6
11891,84.5
11892,144.6
11894,116.9
11895,123.8
11897,-30.4
11907,123.2
11908,156.5
11911,125.8
11912,-9.8
11914,123.2
11916,156.8
11917,92.8
11918,127.6
11921,151.7
11924,-17.5
11927,100.6
11928,161.7
11929,119.2
11933,127.2
11937,-27.8
11942,139.2
11944,112.7
11945,89.5
11947,138.3
11951,-20.1
11953,157.6
11954,149.3
11956,95.9
11958,161.5
11959,96.8
11964,-25.3
11965,95.7
11966,118.6
11967,119.4
11972,126.3
11973,141.4
11974,83.0
11975,142.1
11977,98.7
11978,-27.8
11981,137.3
11982,89.4
11983,116.0
11984,152.3
11986,96.5
11988,129.3
11990,137.1
11991,140.1
11992,-9.8
11993,143.4
11994,165.2
12000,82.1
12002,107.1
12004,-17.5
12006,132.2
12008,151.5
12009,130.6
12011,91.1
12012,109.8
12013,135.5
12016,123.3
12017,-27.8
12018,95.1
12019,109.8
12021,133.9
12022,124.7
12024,107.5
12025,129.2
12026,98.2
12027,129.9
12030,-17.5
12032,164.5
12033,127.8
12034,109.3
12039,161.5
12040,161.0
12041,162.9
12043,107.0
12044,148.5
12045,-27.8
12046,91.4
12047,163.5
12053,115.3
12055,123.5
12056,132.1
12058,-27.8
12061,131.2
12065,164.0
12068,94.0
12069,164.3
12070,156.2
12071,-9.8
12073,156.6
12075,112.2
12076,90.0
12077,127.8
12078,88.9
12079,91.8
12082,166.0
12084,-22.7
12085,127.2
12086,85.4
12088,157.1
12089,113.1
12090,85.7
12093,143.8
12097,-27.8
12098,97.8
12099,105.2
12100,142.5
12104,97.6
12106,163.5
12110,130.3
12111,-17.5
12113,158.5
12115,112.1
12116,121.8
12118,86.3
12121,102.0
12125,-25.3
12129,83.4
12131,94.2
12134,98.9
12136,92.6
12137,144.9
12138,-17.5
12141,94.9
12144,136.5
12146,87.5
12147,125.6
12150,153.9
12151,-15.0
12155,85.1
12156,105.7
12158,131.2
12161,165.3
12165,-30.4
12167,116.5
12168,137.3
12172,111.6
12173,167.6
12179,-15.0
12181,95.9
12183,155.2
12185,117.1
12187,100.1
12190,92.2
12192,-15.0
12194,130.2
12197,115.1
12198,158.2
12202,83.2
12203,163.9
12206,-25.3
12211,136.9
12212,83.7
12216,93.7
12219,-12.4
12220,104.5
12225,96.9
12226,115.1
12227,143.1
12231,93.9
12232,-20.1
12233,142.4
12234,131.4
12236,113.3
12237,122.4
12239,150.2
12242,136.6
12243,167.5
12244,142.0
12245,110.1
12247,-35.5
12248,158.0
12252,141.4
12254,151.4
12256,147.6
12257,108.2
12259,163.4
12260,-15.0
12262,164.6
12263,113.6
12265,117.1
12266,148.8
12268,124.7
12269,86.3
12273,-25.3
12274,114.7
12276,159.7
12281,149.9
12283,113.1
12286,-25.3
12288,108.1
12291,162.8
12292,100.8
12293,110.4
12298,87.6
12299,114.8
12300,-12.4
12301,118.9
12304,129.2
12306,128.1
12307,152.8
12311,112.4
12314,-27.8
12317,157.2
12318,99.1
12322,146.3
12324,105.0
12325,99.1
12327,-33.0
12328,107.5
12329,145.8
12330,101.7
12332,162.8
12333,112.4
12334,129.0
12335,118.9
12337,95.8
12341,-22.7
12344,117.8
12348,124.5
12349,119.3
12351,115.7
12353,107.8
12354,-30.4
12355,108.9
12359,95.3
12362,156.0
12363,151.8
12367,-25.3
12369,122.7
12371,127.1
12372,82.4
12373,125.7
12374,134.4
12377,103.0
12378,148.5
12379,137.9
12381,148.3
12382,-22.7
12383,134.5
12384,100.8
12385,153.3
12386,103.7
12391,103.0
12395,-38.1
12399,165.9
12400,119.0
12402,133.3
12406,111.0
12407,128.1
12408,-17.5
12409,112.6
12411,147.6
12413,150.0
12419,109.4
12421,87.1
12422,-17.5
12425,167.5
12428,84.7
12429,97.0
12432,105.1
12433,121.9
12434,145.0
12435,-30.4
12436,82.7
12437,121.4
12439,106.1
12441,160.9
12444,147.2
12447,147.2
12449,-17.5
12450,130.8
12451,141.9
12452,120.4
12453,160.7
12454,124.1
12456,94.2
12459,165.6
12461,109.1
12463,-27.8
12464,136.6
12466,161.3
12468,139.4
12470,165.4
12471,82.4
12473,130.4
12475,84.5
12476,-27.8
12477,118.3
12480,110.8
12483,167.4
12486,91.5
12488,85.3
12489,-15.0
12491,93.4
12493,142.0
12496,82.4
12500,167.4
12501,84.0
12503,-20.1
12504,97.9
12505,130.4
12506,108.8
12509,111.5
12510,158.1
12511,94.0
12517,-9.8
12518,121.9
12521,104.8
12524,140.8
12525,139.8
12527,102.0
12529,-12.4
12530,101.2
12532,124.3
12533,155.8
12534,147.2
12536,98.2
12537,150.6
12542,-25.3
12543,144.3
12544,90.6
12545,94.2
12549,138.5
12550,131.5
12553,105.6
12554,156.7
12555,116.5
12556,-20.1
12558,97.9
12559,121.6
12560,104.7
12562,129.4
12563,154.3
12564,114.7
12565,97.8
12566,139.4
12567,91.5
12569,-9.8
12571,86.4
12572,113.3
12573,101.2
12574,98.5
12576,143.5
12580,112.1
12581,107.2
12582,-20.1
12583,164.1
12585,104.3
12592,147.1
12593,166.0
12594,150.6
12595,152.8
12596,-25.3
12597,135.8
12602,132.3
12603,109.9
12606,88.7
12608,139.2
12609,-15.0
12612,161.4
12613,111.6
12615,112.7
12617,147.0
12619,100.9
12621,121.0
12622,-20.1
12624,84.7
12626,147.8
12627,93.7
12633,98.0
12634,154.7
12635,117.8
12636,-17.5
12637,99.2
12638,120.0
12640,115.1
12642,167.8
12646,94.1
12650,-12.4
12651,89.5
12656,109.3
12658,122.9
12663,-27.8
12664,164.8
12666,143.8
12671,147.6
12672,146.3
12673,147.5
12677,-17.5
12679,104.1
12680,90.7
12686,146.8
12689,84.5
12690,-17.5
12692,104.1
12694,92.2
12695,165.9
12700,138.3
12701,115.7
12702,83.2
12703,-27.8
12704,135.4
12706,87.1
12707,131.1
12708,89.2
12709,153.6
12712,102.7
12713,149.9
12714,102.2
12715,135.2
12718,-9.8
12722,110.9
12724,88.3
12727,146.0
12728,162.9
12729,108.7
12730,-17.5
12731,84.8
12732,110.4
12733,134.9
12734,132.8
12735,94.3
12739,152.6
12740,160.6
12742,142.5
12743,-33.0
12744,118.0
12749,101.6
12750,151.1
12753,163.5
12756,-15.0
12757,163.9
12761,100.5
12762,149.2
12763,153.2
12764,127.7
12765,129.8
12768,164.3
12769,108.5
12770,-20.1
12771,111.6
12774,162.5
12777,138.6
12778,137.9
12779,86.9
12780,113.8
12784,-27.8
12787,152.2
12790,116.5
12791,113.5
12792,155.9
12797,-12.4
12799,94.4
12801,97.1
12802,144.1
12803,91.2
12804,104.0
12807,122.5
12808,148.0
12809,120.0
12811,-25.3
12814,122.1
12815,134.1
12816,87.5
12817,143.8
12820,107.2
12821,84.1
12824,-33.0
12825,106.5
12826,104.3
12827,159.0
12829,126.8
12831,142.8
12833,137.6
12834,103.4
12835,157.9
12837,114.0
12838,-15.0
12839,160.7
12840,89.3
12841,85.3
12842,138.2
12843,95.5
12844,166.4
12847,123.6
12850,92.2
12852,-20.1
12853,137.3
12854,109.6
12856,117.1
12859,140.8
12860,91.9
12861,139.9
12864,122.2
12865,-27.8
12866,92.9
12867,159.7
12868,164.6
12870,151.6
12871,160.2
12876,100.4
12878,-17.5
12880,95.9
12881,91.6
12885,118.8
12892,-33.0
12893,140.9
12895,89.2
12896,86.6
12897,125.3
12898,101.7
12899,135.2
12902,95.5
12903,133.1
12904,103.2
12905,130.8
12906,-27.8
12907,88.5
12910,109.7
12911,100.7
12913,121.6
12915,148.9
12919,-20.1
12928,91.8
12929,84.3
12930,93.8
12933,-35.5
12934,126.2
12936,120.8
12937,82.1
12938,137.3
12939,111.8
12940,133.2
12942,135.2
12943,144.7
12946,-22.7
12947,114.1
12948,98.9
12951,103.9
12952,109.3
12953,82.9
12954,167.0
12955,82.5
12957,148.7
12958,114.4
12959,-25.3
12961,151.4
12963,103.0
12965,124.5
12968,134.7
12970,158.3
12971,146.1
12974,-33.0
12976,108.6
12977,111.8
12983,86.8
12984,133.1
12987,-15.0
12989,125.3
12991,120.9
12995,116.1
12998,102.4
13000,-20.1
13001,149.0
13007,105.4
13008,134.0
13010,143.8
13014,-27.8
13015,99.7
13017,117.1
13018,141.3
13023,140.4
13024,107.6
13025,87.9
13027,-17.5
13028,143.1
13030,94.6
13033,149.8
13035,128.6
13037,90.3
13038,88.5
13040,102.9
13041,-25.3
13042,129.3
13044,93.4
13045,96.8
13050,86.2
13051,146.5
13054,-20.1
13058,90.6
13063,103.0
13064,114.3
13065,90.6
13067,108.7
13068,-9.8
13070,94.8
13072,90.5
13076,128.0
13079,129.0
13080,-20.1
13081,113.1
13082,102.3
13083,84.7
13088,129.3
13091,98.9
13093,-22.7
13095,144.9
13096,157.8
13097,139.8
13099,127.0
13100,144.2
13101,136.8
13104,101.1
13106,154.3
13107,102.4
13108,-15.0
13111,130.6
13114,139.4
13117,89.4
13119,162.7
13121,-25.3
13123,123.2
13125,103.1
13127,114.7
13128,83.1
13129,146.4
13130,133.0
13133,108.3
13134,-17.5
13136,123.8
13141,123.5
13145,86.0
13148,-12.4
13149,84.0
13150,93.1
13152,104.1
13155,143.7
13158,149.1
13161,-27.8
13162,165.1
13169,160.5
13172,121.3
13175,-15.0
13176,119.3
13178,105.1
13185,113.4
13186,150.3
13187,150.3
13189,-17.5
13190,139.7
13192,154.1
13193,109.6
13194,97.5
13197,121.5
13198,127.5
13199,89.0
13202,-25.3
13204,91.5
13205,149.2
13207,146.8
13211,135.5
13212,150.7
13214,108.1
13215,-9.8
13217,104.3
13220,113.2
13224,134.1
13225,94.2
13226,116.0
13227,111.1
13228,-15.0
13230,152.8
13234,133.6
13236,121.0
13238,124.9
13240,102.3
13242,-30.4
13245,120.4
13247,140.9
13248,92.0
13249,147.0
13251,125.1
13252,117.7
13253,94.2
13255,-15.0
13257,118.6
13258,132.3
13260,116.5
13261,93.6
13262,116.5
13263,153.3
13266,161.4
13268,-12.4
13271,119.9
13272,100.8
13273,84.2
13274,113.3
13275,99.8
13282,-22.7
13284,90.5
13285,128.8
13287,155.3
13290,123.1
13295,-7.2
13299,106.6
13300,167.4
13301,96.3
13303,94.0
13305,141.1
13307,161.8
13308,-17.5
13310,147.5
13312,106.8
13314,114.7
13315,87.9
13317,107.6
13318,115.6
13321,114.8
13322,-30.4
13324,124.5
13330,99.6
13331,100.8
13335,-12.4
13337,107.5
13338,140.5
13339,88.2
13340,121.3
13341,149.0
13346,140.8
13347,97.0
13348,-15.0
13349,139.7
13350,114.2
13353,107.4
13358,101.5
13361,133.7
13362,-27.8
13364,167.2
13366,145.4
13373,99.8
13374,161.4
13375,104.5
13376,-17.5
13377,84.3
13378,103.5
13379,108.9
13380,128.3
13382,130.6
13385,133.0
13388,159.6
13389,-22.7
13390,161.7
13391,100.6
13392,129.4
13393,149.0
13394,101.9
13397,84.4
13400,128.6
13401,123.8
13403,-25.3
13404,133.9
13405,137.1
13409,116.5
13410,101.5
13413,154.5
13414,147.8
13416,-12.4
13418,131.6
13420,97.6
13428,163.9
13429,-22.7
13431,149.0
13433,142.8
13434,163.5
13444,-27.8
13445,91.8
13446,137.4
13448,123.5
13453,87.0
13454,110.4
13455,101.2
13457,-17.5
13459,87.5
13460,160.1
13462,86.3
13466,145.9
13470,-33.0
13472,141.0
13473,131.8
13474,89.0
13475,120.8
13476,93.0
13477,95.5
13482,123.3
13483,126.6
13484,-17.5
13489,83.8
13491,128.1
13493,120.4
13494,132.2
13497,-12.4
13501,167.0
13502,116.4
13503,86.6
13507,153.2
13508,110.8
13510,120.5
13511,-25.3
13512,134.7
13514,149.9
13518,144.5
13523,138.4
13524,-17.5
13525,153.6
13531,123.0
13533,106.5
13535,134.8
13537,135.7
13538,-25.3
13539,86.9
13540,95.9
13542,156.7
13543,91.2
13546,92.7
13549,106.0
13551,-27.8
13552,155.4
13553,150.0
13555,167.0
13564,-9.8
13569,112.6
13572,145.4
13573,129.5
13574,128.0
13576,90.8
13578,-22.7
13580,162.9
13581,165.2
13583,119.2
13587,124.4
13588,136.3
13591,-30.4
13593,140.9
13594,164.4
13603,142.8
13604,-9.8
13605,116.9
13606,102.9
13607,167.4
13609,99.2
13610,90.1
13612,133.3
13613,166.4
13615,113.5
13616,112.3
13617,-17.5
13618,152.3
13620,146.1
13621,146.8
13624,90.9
13625,133.3
13628,134.4
13629,100.7
13630,-25.3
13631,160.6
13632,125.6
13633,89.6
13634,154.2
13639,100.2
13644,-12.4
13646,155.4
13647,143.1
13648,137.8
13649,158.3
13650,86.6
13653,127.6
13657,163.5
13658,-17.5
13659,142.0
13660,91.8
13662,99.8
13664,152.8
13665,125.0
13669,118.6
13671,-27.8
13673,124.5
13675,98.2
13676,140.8
13682,96.8
13683,115.5
13684,-15.0
13688,151.0
13689,141.4
13690,118.3
13694,92.4
13696,154.0
13697,88.6
13698,-17.5
13701,134.8
13702,127.3
13707,105.0
13708,85.2
13712,-12.4
13724,154.9
13725,-9.8
13726,108.7
13728,133.8
13729,86.8
13731,123.0
13732,96.0
13733,112.7
13734,107.4
13735,126.4
13737,-25.3
13738,110.6
13739,101.3
13740,141.8
13749,159.7
13750,152.5
13751,-25.3
13753,102.2
13754,133.4
13755,132.4
13756,147.2
13761,92.6
13762,123.4
13763,105.9
13764,-9.8
13771,145.0
13773,133.9
13774,95.3
13775,160.3
13777,-17.5
13778,148.8
13779,158.7
13780,91.1
13781,151.6
13782,88.0
13789,133.6
13790,145.6
13791,-22.7
13793,109.7
13794,157.7
13795,87.7
13797,145.6
13799,166.4
13800,163.6
13802,103.8
13803,124.4
13804,-15.0
13806,118.2
13808,97.4
13809,162.4
13812,152.4
13814,167.3
13817,-20.1
13819,142.8
13820,116.9
13821,85.2
13825,141.9
13826,116.0
13827,131.1
13829,104.5
13830,104.2
13831,-15.0
13834,152.9
13836,144.2
13837,129.7
13838,109.4
13840,90.1
13842,115.5
13843,148.7
13844,133.9
13845,-4.7
13849,82.7
13850,148.4
13855,122.4
13857,-12.4
13858,116.4
13859,138.9
13861,111.0
13865,164.4
13867,86.0
13870,132.5
13871,-17.5
13874,141.8
13875,108.3
13877,157.8
13878,131.8
13881,122.0
13882,136.1
13884,-12.4
13886,160.7
13889,84.8
13890,166.7
13891,134.6
13892,156.5
13895,142.4
13897,-25.3
13898,121.6
13899,136.7
13900,158.7
13904,110.3
13907,163.3
13910,161.6
13911,118.0
13912,-17.5
13914,125.7
13915,87.7
13918,99.7
13922,164.8
13925,-4.7
13926,122.5
13927,162.4
13928,120.9
13929,123.1
13931,93.7
13933,123.2
13934,101.5
13937,-15.0
13938,107.3
13940,83.0
13941,161.1
13943,108.3
13945,137.9
13946,137.6
13948,145.2
13950,-15.0
13952,163.3
13953,90.1
13954,135.0
13955,157.6
13959,154.2
13964,-9.8
13965,101.7
13966,151.6
13968,117.4
13969,160.5
13972,97.9
13975,102.2
13977,-22.7
13979,108.9
13980,159.6
13982,90.1
13983,128.8
13984,137.8
13986,108.7
13987,105.1
13989,107.5
13990,-20.1
13993,165.6
14000,157.0
14001,105.3
14002,139.6
14003,139.5
14004,-9.8
14008,95.5
14012,106.0
14013,151.5
14016,-17.5
14020,146.8
14021,82.6
14024,133.7
14027,119.8
14028,112.2
14029,-27.8
14031,158.9
14033,89.8
14034,139.5
14036,126.3
14037,138.5
14038,166.3
14040,117.8
14043,105.6
14044,-15.0
14049,134.7
14050,131.5
14051,90.9
14052,124.6
14055,98.5
14056,128.4
14057,-22.7
14058,142.8
14063,159.2
14064,122.2
14065,109.5
14067,153.5
14069,93.5
14070,-17.5
14074,154.1
14075,167.2
14077,140.9
14080,135.6
14083,125.7
14084,-9.8
14089,152.9
14090,115.2
14091,88.5
14093,159.6
14095,149.1
14096,-27.8
14097,84.3
14102,99.2
14105,115.0
14106,135.0
14110,-25.3
14111,97.6
14115,131.7
14117,167.1
14118,85.0
14120,164.3
14122,102.8
14123,114.9
14124,-15.0
14125,114.8
14129,132.1
14132,162.5
14134,118.4
14135,96.9
14136,96.4
14137,-20.1
14138,111.8
14141,101.9
14143,115.0
14144,130.9
14150,-12.4
14153,90.0
14154,87.6
14158,152.8
14160,149.3
14163,-12.4
14166,98.5
14168,140.2
14169,153.9
14170,150.2
14172,149.4
14173,108.3
14177,106.1
14178,-27.8
14179,136.3
14182,94.8
14185,82.2
14187,118.5
14188,97.3
14191,-12.4
14193,146.0
14194,105.2
14195,98.5
14196,151.3
14198,140.0
14201,128.3
14204,-12.4
14205,101.8
14206,102.5
14209,99.9
14211,113.9
14214,162.8
14215,145.4
14216,114.8
14218,-25.3
14219,159.6
14224,103.9
14225,85.2
14226,119.4
14228,151.5
14229,151.8
14230,97.1
14231,-12.4
14232,103.4
14233,130.3
14234,115.0
14236,135.3
14237,93.5
14239,110.4
14244,83.8
14245,-17.5
14246,105.1
14248,111.2
14250,153.6
14252,131.7
14253,111.9
14254,165.8
14255,155.3
14256,136.5
14259,-22.7
14261,162.5
14263,151.4
14264,167.0
14265,134.4
14266,157.6
14267,161.2
14269,154.5
14270,156.4
14271,103.4
14272,-7.2
14273,118.7
14274,159.8
14275,157.1
14276,118.3
14280,110.1
14282,109.8
14284,-9.8
14286,90.3
14289,156.1
14290,116.8
14291,85.9
14292,121.4
14293,151.0
14295,127.0
14297,-25.3
14298,82.4
14300,147.5
14301,150.6
14302,111.3
14303,93.7
14304,125.7
14305,121.2
14306,162.4
14307,166.8
14308,145.6
14309,134.5
14311,-12.4
14313,116.6
14314,114.4
14318,164.8
14320,119.0
14324,-17.5
14325,132.7
14327,134.6
14329,104.2
14332,83.4
14333,142.3
14335,121.4
14336,155.4
14337,137.3
14338,-27.8
14339,157.0
14340,156.5
14341,119.3
14346,86.4
14348,154.8
14349,135.4
14350,160.1
14351,-9.8
14353,88.9
14354,164.9
14356,100.5
14358,127.0
14360,150.5
14363,-7.2
14364,163.8
14367,162.2
14370,120.5
14372,111.0
14373,123.3
14375,112.8
14376,-25.3
14377,119.2
14378,110.0
14379,138.1
14380,88.6
14383,144.6
14384,118.3
14388,83.7
14390,-15.0
14391,90.2
14393,124.3
14394,107.2
14397,130.4
14403,-9.8
14407,144.2
14409,97.5
14412,106.4
14415,-20.1
14416,99.8
14417,165.0
14418,134.5
14422,137.0
14427,119.4
14429,-12.4
14432,126.5
14437,83.6
14440,166.0
14443,-9.8
14445,161.7
14446,109.9
14448,160.2
14449,137.5
14450,149.2
14451,117.1
14452,142.8
14455,-22.7
14462,150.0
14463,101.7
14464,111.5
14468,85.9
14469,-17.5
14470,152.9
14471,146.4
14474,104.7
14475,97.3
14476,130.2
14478,88.2
14480,153.5
14482,-4.7
14483,128.2
14484,96.4
14485,110.5
14488,120.3
14490,107.9
14491,84.9
14492,93.2
14494,-15.0
14495,86.8
14501,156.1
14505,155.9
14507,128.3
14508,156.9
14509,-15.0
14511,167.9
14513,118.8
14515,96.8
14516,114.4
14519,153.5
14522,-9.8
14524,126.2
14527,149.9
14528,136.1
14530,147.4
14534,-22.7
14536,103.4
14539,137.6
14540,131.3
14541,147.3
14542,117.0
14543,130.1
14546,86.5
14547,-25.3
14549,115.1
14550,109.8
14551,112.2
14553,83.6
14554,154.2
14559,83.9
14560,88.8
14561,-9.8
14563,147.7
14564,119.8
14565,131.7
14566,133.7
14572,89.2
14574,-12.4
14579,151.4
14580,137.8
14581,82.1
14582,107.3
14583,161.2
14587,-20.1
14590,155.9
14592,94.7
14594,156.7
14596,142.9
14597,121.5
14599,127.1
14601,-7.2
14604,147.3
14606,86.2
14608,100.6
14611,110.2
14612,94.6
14613,-12.4
14615,163.3
14617,146.3
14618,100.5
14621,108.1
14623,106.2
14625,136.1
14626,-22.7
14627,104.2
14628,125.7
14629,133.4
14630,146.3
14632,143.8
14633,102.0
14637,128.2
14638,140.0
14641,-7.2
14642,94.9
14644,101.1
14647,119.8
14651,118.3
14653,-9.8
14654,123.0
14657,154.4
14658,159.6
14660,120.6
14662,100.9
14665,-22.7
14673,92.7
14674,120.4
14676,106.1
14679,-7.2
14680,112.7
14687,121.7
14691,3.0
14692,118.8
14694,140.1
14696,158.6
14697,115.4
14700,163.1
14703,3.0
14704,120.2
14705,108.9
14710,85.5
14711,134.8
14712,160.2
14714,-7.2
14715,160.7
14716,134.1
14717,152.0
14718,104.8
14721,124.6
14723,148.5
14724,114.2
14727,-15.0
14728,105.4
14730,106.7
14731,102.6
14733,106.5
14734,125.2
14738,110.7
14739,132.5
14740,-7.2
14741,155.0
14742,120.4
14744,121.5
14746,103.8
14747,153.0
14752,-15.0
14753,84.4
14754,146.8
14756,102.6
14759,115.5
14763,118.1
14764,122.9
14766,-22.7
14768,84.2
14770,157.0
14773,83.9
14775,156.5
14776,118.2
14777,112.5
14778,108.5
14780,-9.8
14782,120.3
14784,99.2
14786,89.6
14787,109.3
14792,-7.2
14795,122.5
14797,99.9
14798,148.8
14804,-20.1
14806,87.1
14808,132.6
14809,149.8
14810,137.3
14813,86.0
14814,155.2
14815,145.5
14816,150.5
14818,-20.1
14820,114.0
14821,112.7
14822,125.5
14823,102.8
14825,107.0
14828,104.7
14830,103.0
14831,-15.0
14833,166.6
14834,150.8
14835,138.3
14836,118.3
14839,103.2
14840,164.0
14842,160.6
14844,156.4
14845,-25.3
14848,93.2
14849,117.4
14851,166.6
14856,136.3
14857,160.7
14858,139.7
14859,-15.0
14864,83.2
14869,164.4
14872,-12.4
14873,104.4
14874,84.5
14876,168.0
14880,145.4
14884,88.0
14885,-22.7
14886,145.3
14890,152.1
14893,132.3
14895,146.8
14899,-2.1
14903,113.1
14911,118.2
14912,-2.1
14913,88.8
14914,141.3
14920,133.4
14923,130.8
14924,-15.0
14925,145.3
14927,153.7
14934,167.5
14936,89.5
14938,-9.8
14939,90.8
14942,158.3
14945,125.2
14947,146.4
14948,120.5
14950,-7.2
14953,161.9
14954,116.6
14955,88.6
14958,144.8
14961,122.5
14962,-15.0
14964,118.6
14967,90.0
14970,137.3
14971,137.7
14972,126.0
14976,139.5
14977,-20.1
14979,106.1
14982,121.7
14983,132.2
14984,116.4
14988,138.0
14990,-4.7
14993,149.2
14994,115.0
14997,158.1
14998,142.9
15001,83.4
15002,-15.0
15003,114.1
15004,93.5
15008,116.8
15011,166.1
15012,132.4
15014,83.4
15015,-22.7
15017,137.2
15019,87.8
15021,143.8
15023,142.3
15025,141.5
15026,82.3
15028,97.5
15029,-9.8
15030,142.6
15035,124.7
15039,160.1
15040,155.6
15041,109.1
15042,-15.0
15043,154.1
15044,140.5
15050,135.6
15051,118.3
15052,160.7
15054,87.8
15055,-22.7
15056,86.7
15058,87.8
15061,157.3
15064,127.7
15066,114.3
15067,108.5
15069,-2.1
15070,108.4
15075,156.6
15076,100.3
15078,132.8
15080,89.8
15081,-4.7
15082,121.0
15083,145.7
15084,111.2
15086,104.5
15087,107.7
15088,108.0
15089,93.0
15090,98.2
15091,134.1
15092,106.3
15093,-17.5
15095,83.4
15098,159.2
15103,157.1
15106,96.3
15108,-7.2
15109,144.1
15110,149.3
15113,123.4
15117,101.4
15120,5.6
15122,112.7
15124,89.1
15125,160.8
15126,140.6
15127,146.9
15130,116.9
15131,-2.1
15135,108.7
15136,156.6
15138,124.7
15139,108.0
15142,99.5
15143,-12.4
15144,165.4
15145,161.0
15146,88.6
15152,140.0
15154,82.7
15155,112.6
15156,114.2
15157,-9.8
15161,105.0
15164,163.2
15165,118.0
15166,109.4
15168,152.1
15169,112.0
15170,-7.2
15171,163.8
15172,162.5
15173,148.7
15177,113.4
15178,96.4
15180,92.2
15182,-12.4
15184,129.3
15186,110.2
15187,157.4
15188,151.4
15192,87.0
15194,131.7
15196,-17.5
15201,108.1
15203,158.2
15205,150.3
15207,88.5
15209,-2.1
15213,96.7
15214,167.8
15216,166.2
15220,110.4
15221,-15.0
15224,151.5
15225,154.2
15230,165.7
15231,91.5
15232,121.6
15233,147.2
15234,97.3
15236,-22.7
15237,128.3
15240,163.1
15247,90.4
15249,-9.8
15251,100.9
15254,127.8
15255,164.1
15260,89.9
15261,-15.0
15262,158.7
15263,147.8
15264,145.0
15266,167.4
15267,164.6
15270,87.6
15272,104.2
15274,115.1
15275,-20.1
15276,104.3
15278,142.5
15280,166.5
15281,96.9
15283,160.7
15286,90.8
15288,-2.1
15290,134.3
15291,113.8
15300,121.8
15301,-9.8
15303,154.3
15304,166.1
15305,154.8
15306,154.3
15311,145.3
15312,90.7
15313,-20.1
15314,87.4
15315,109.0
15316,122.6
15318,98.6
15320,89.8
15322,89.5
15323,144.2
15325,89.6
15326,103.5
15327,-4.7
15328,110.6
15329,137.1
15330,113.2
15331,155.0
15332,163.9
15335,109.6
15338,85.4
15339,0.5
15341,87.1
15344,108.4
15346,82.9
15350,-4.7
15354,119.9
15355,89.6
15357,143.3
15358,158.9
15359,135.0
15362,158.4
15363,-17.5
15364,117.0
15366,134.8
15372,108.1
15377,-12.4
15378,148.1
15379,109.5
15380,117.0
15381,154.2
15383,119.2
15390,-12.4
15391,146.4
15392,108.3
15393,167.0
15394,108.1
15397,149.3
15400,145.8
15401,97.8
15402,132.8
15404,-22.7
15406,94.2
15407,162.7
15408,155.8
15414,133.4
15417,-4.7
15424,111.3
15425,86.7
15426,108.4
15429,-7.2
15433,89.1
15434,135.2
15436,145.1
15438,90.9
15439,118.1
15441,91.0
15442,-20.1
15443,141.8
15445,114.9
15456,-22.7
15457,137.1
15460,141.3
15461,90.0
15463,87.1
15466,146.8
15469,-15.0
15471,154.3
15473,142.4
15475,127.3
15479,93.4
15482,-25.3
15484,139.1
15485,93.5
15489,145.6
15490,116.8
15492,94.2
15493,152.9
15494,161.6
15496,-9.8
15497,95.1
15502,89.2
15503,151.7
15505,112.6
15508,136.9
15509,-4.7
15511,96.7
15519,149.3
15520,153.9
15521,-15.0
15522,130.9
15526,114.8
15529,94.6
15531,127.5
15533,136.3
15534,124.7
15535,-22.7
15536,150.8
15537,142.9
15546,146.1
15547,83.0
15548,-7.2
15551,130.9
15552,94.0
15553,150.8
15554,136.5
15555,162.6
15556,136.5
15557,124.3
15558,147.4
15560,-7.2
15561,129.4
15565,121.2
15566,142.5
15567,95.6
15571,84.6
15574,-9.8
15576,164.6
15578,138.8
15579,160.5
15582,105.0
15584,111.2
15585,124.4
15586,5.6
15588,93.1
15590,151.2
15592,129.9
15593,162.8
15594,94.4
15596,112.1
15597,-4.7
15599,107.4
15601,98.0
15602,143.7
15603,85.8
15606,140.2
15609,-12.4
15610,126.0
15611,161.6
15613,137.3
15615,142.8
15620,94.7
15623,-17.5
15624,136.3
15627,126.4
15632,83.4
15633,114.7
15634,106.8
15635,84.5
15636,150.1
15637,-2.1
15638,153.5
15639,104.5
15644,118.0
15645,112.8
15647,107.8
15648,123.0
15649,-7.2
15650,120.8
15651,151.2
15655,141.6
15657,134.2
15660,111.3
15661,143.7
15662,-22.7
15663,84.0
15664,156.9
15665,136.6
15667,165.6
15668,132.3
15670,110.4
15671,115.7
15672,141.2
15673,99.6
15674,90.1
15675,-20.1
15677,115.4
15678,135.9
15679,112.5
15682,151.3
15683,101.0
15685,130.1
15686,127.7
15688,-12.4
15696,161.7
15698,120.1
15699,157.7
15700,111.9
15702,142.0
15703,-20.1
15705,160.4
15706,134.7
15707,153.3
15713,88.4
15715,115.5
15716,-12.4
15718,164.5
15720,117.8
15723,93.0
15724,161.8
15726,154.5
15729,-15.0
15731,84.0
15733,89.6
15737,90.4
15738,144.5
15739,98.6
15742,-22.7
15744,114.9
15745,161.3
15754,123.5
15756,-9.8
15762,132.7
15763,139.2
15764,120.5
15765,157.9
15767,146.8
15769,-9.8
15771,134.9
15772,100.4
15773,83.4
15774,110.3
15775,147.4
15778,144.8
15781,-12.4
15782,155.7
15784,126.8
15785,150.6
15786,147.8
15787,144.8
15788,130.2
15789,163.8
15792,131.0
15794,108.5
15795,-12.4
15797,132.7
15799,146.8
15803,104.3
15804,151.6
15807,144.9
15808,-9.8
15811,164.3
15816,102.1
15819,119.9
15820,-17.5
15821,130.2
15822,132.6
15823,157.9
15826,164.3
15827,117.2
15829,100.5
15832,86.8
15835,-12.4
15838,130.5
15840,144.7
15841,92.8
15843,144.8
15844,124.4
15845,151.5
15847,104.0
15848,-4.7
15855,125.9
15857,126.5
15858,152.1
15860,-15.0
15861,127.5
15865,148.2
15867,153.8
15871,110.5
15872,141.2
15873,94.8
15874,-17.5
15875,158.6
15878,113.6
15879,139.1
15881,139.0
15887,-7.2
15890,139.1
15892,157.0
15895,95.7
15896,159.9
15899,143.7
15900,-12.4
15902,159.5
15903,147.4
15905,91.5
15907,100.8
15908,103.1
15909,100.0
15910,119.6
15913,-20.1
15915,125.9
15918,111.5
15920,128.0
15921,107.6
15926,163.0
15927,-7.2
15929,118.3
15938,160.0
15939,-17.5
15940,137.0
15944,125.2
15951,134.5
15952,-25.3
15953,116.3
15955,109.9
15958,129.4
15962,123.2
15963,105.1
15967,-9.8
15973,106.1
15975,110.0
15977,131.4
15978,110.8
15979,-12.4
15982,88.8
15983,112.7
15984,99.3
15990,162.6
15992,-20.1
15998,109.7
15999,111.6
16004,149.7
16005,110.4
16006,-4.7
16009,136.1
16012,161.4
16014,142.2
16016,124.0
16017,128.2
16018,-2.1
16020,121.3
16025,105.8
16026,165.2
16028,87.5
16030,-12.4
16031,136.7
16033,165.5
16036,115.2
16038,158.3
16039,161.9
16040,118.9
16044,109.8
16045,3.0
16046,92.3
16047,146.3
16048,92.1
16049,135.1
16053,124.4
16054,104.1
16056,5.6
16061,101.3
16063,134.7
16064,112.6
16065,109.4
16067,-2.1
16068,148.0
16069,149.0
16070,119.5
16073,158.3
16076,134.6
16077,119.9
16079,-15.0
16081,133.5
16083,102.4
16088,144.1
16089,160.6
16090,86.3
16091,164.2
16092,112.2
16093,-15.0
16098,125.4
16104,97.8
16107,-7.2
16108,153.8
16110,116.1
16118,98.5
16119,-9.8
16120,85.2
16127,147.2
16129,110.1
16132,-17.5
16133,122.9
16134,137.0
16136,96.8
16137,106.1
16138,92.9
16139,106.1
16141,128.6
16143,146.1
16145,-2.1
16146,108.3
16147,139.0
16149,96.4
16150,114.8
16151,129.6
16153,130.8
16155,126.7
16156,103.8
16157,-9.8
16160,138.3
16162,86.2
16163,89.1
16164,136.5
16165,125.5
16170,84.9
16171,-20.1
16176,82.7
16180,99.5
16184,-4.7
16185,160.3
16186,129.6
16187,88.2
16188,155.5
16189,156.9
16191,119.7
16192,102.8
16193,150.3
16194,127.3
16195,116.4
16196,-2.1
16198,146.2
16201,91.0
16202,111.7
16206,104.5
16207,117.8
16208,-12.4
16212,83.4
16214,103.1
16216,95.3
16219,115.8
16221,134.9
16222,-4.7
16223,119.6
16225,155.6
16227,162.1
16228,152.9
16229,116.6
16231,142.2
16235,3.0
16239,124.6
16241,86.1
16243,110.6
16244,99.7
16246,-2.1
16250,161.6
16252,155.3
16253,107.7
16254,131.3
16258,91.2
16259,-12.4
16260,141.4
16267,143.1
16272,-9.8
16273,152.6
16274,112.0
16275,120.2
16276,135.9
16279,140.7
16281,151.1
16283,113.3
16284,5.6
16286,85.7
16287,166.4
16290,157.6
16293,163.6
16295,3.0
16296,165.4
16298,144.1
16299,155.1
16300,137.8
16303,138.4
16304,129.9
16305,156.0
16308,-9.8
16309,139.9
16310,121.0
16313,157.2
16314,129.2
16319,89.7
16320,-17.5
16324,95.6
16326,97.7
16329,104.3
16330,163.0
16331,113.9
16333,0.5
16337,123.1
16340,126.0
16342,106.8
16344,116.0
16345,3.0
16346,120.3
16351,134.4
16355,153.6
16356,-2.1
16357,153.5
16358,153.4
16362,89.1
16365,149.2
16366,130.4
16367,131.0
16368,90.6
16369,-17.5
16370,125.4
16371,121.2
16374,114.2
16377,87.9
16380,131.2
16381,141.2
16382,-4.7
16383,107.7
16384,150.2
16388,133.9
16390,96.2
16392,99.7
16393,90.6
16395,-2.1
16399,160.9
16401,135.3
16402,97.3
16403,147.3
16405,147.4
16407,-12.4
16411,126.5
16412,137.4
16413,139.0
16414,122.9
16418,119.8
16420,-4.7
16421,119.4
16422,114.6
16423,109.5
16424,159.2
16426,123.4
16427,113.1
16428,108.1
16434,-2.1
16435,134.7
16437,137.8
16440,142.9
16441,136.9
16442,108.3
16444,166.6
16445,119.1
16446,-2.1
16448,122.5
16449,124.4
16453,110.9
16457,117.3
16458,-7.2
16459,130.5
16460,163.8
16463,144.4
16464,153.4
16466,104.8
16467,134.7
16470,159.2
16471,-7.2
16472,123.9
16476,163.4
16478,141.7
16481,107.7
16482,91.7
16483,10.8
16484,100.1
16489,133.1
16491,122.1
16493,167.5
16495,5.6
16497,139.1
16499,91.4
16501,163.7
16507,-4.7
16511,137.3
16516,121.8
16517,155.9
16519,147.9
16520,-12.4
16522,134.9
16524,104.6
16526,139.0
16527,152.4
16530,138.7
16531,141.7
16533,0.5
16541,123.6
16544,5.6
16545,96.9
16548,163.1
16550,122.3
16551,125.0
16553,116.5
16554,90.9
16556,3.0
16557,111.5
16559,137.7
16560,144.9
16561,124.0
16563,90.2
16564,127.9
16566,157.3
16567,114.2
16568,-4.7
16570,100.4
16571,139.2
16575,95.0
16576,156.0
16577,128.1
16578,165.1
16579,112.1
16580,-2.1
16582,83.5
16583,148.7
16587,146.5
16588,149.6
16589,154.0
16590,123.8
16592,-2.1
16594,133.4
16595,153.6
16603,113.1
16605,-7.2
16608,125.1
16609,138.2
16611,116.6
16614,95.4
16615,159.2
16616,127.7
16617,-12.4
16619,160.2
16620,136.0
16623,92.1
16624,98.6
16630,96.4
16631,-4.7
16632,100.4
16637,145.3
16640,149.7
16641,136.9
16644,5.6
16645,120.2
16646,107.9
16647,122.0
16648,103.6
16649,151.4
16652,167.7
16655,-2.1
16656,120.2
16658,143.6
16659,103.9
16660,166.2
16661,139.6
16663,124.1
16665,151.6
16667,-12.4
16671,152.6
16672,103.1
16675,107.0
16677,129.8
16680,0.5
16681,143.4
16682,131.2
16692,-2.1
16694,167.5
16698,126.6
16702,100.6
16703,162.7
16704,114.1
16705,-2.1
16707,147.9
16711,85.2
16712,121.7
16713,98.4
16715,152.9
16717,-12.4
16720,90.7
16724,88.7
16725,111.9
16728,140.3
16729,138.7
16730,85.4
16731,-9.8
16732,91.0
16734,146.5
16743,-2.1
16744,162.9
16745,121.6
16749,150.0
16753,105.2
16755,-9.8
16756,84.9
16759,128.7
16760,142.3
16762,97.3
16765,127.5
16767,109.0
16769,-15.0
16771,90.4
16774,159.7
16778,95.4
16779,146.4
16781,113.4
16782,5.6
16785,151.7
16788,102.3
16793,-2.1
16794,129.3
16795,150.1
16798,132.3
16799,120.3
16800,140.2
16801,112.4
16802,99.0
16803,118.8
16804,168.0
16805,-15.0
16806,113.6
16810,139.9
16814,112.6
16815,127.3
16819,-15.0
16822,117.0
16823,124.1
16824,121.1
16825,93.4
16826,128.3
16828,105.2
16829,89.3
16830,100.4
16831,150.9
16833,-4.7
16835,152.5
16836,146.8
16845,-12.4
16848,134.6
16849,88.4
16852,98.3
16858,133.9
16859,-12.4
16860,160.3
16861,108.7
16863,124.4
16867,108.6
16869,134.8
16871,119.2
16872,-4.7
16881,155.2
16882,161.4
16883,109.0
16884,-15.0
16886,143.3
16887,144.5
16889,117.6
16892,148.1
16893,158.1
16895,163.8
16896,105.1
16898,164.8
16899,-20.1
16900,98.9
16903,148.0
16905,165.7
16906,139.4
16907,139.1
16909,160.6
16911,139.9
16912,-4.7
16913,101.6
16914,113.3
16916,136.1
16918,154.5
16920,130.2
16921,95.2
16924,-9.8
16925,152.9
16929,126.2
16935,165.8
16936,-17.5
16938,111.5
16939,163.6
16940,139.6
16941,102.4
16942,144.7
16945,151.6
16947,163.4
16949,142.8
16950,-4.7
16953,150.8
16955,94.2
16958,125.6
16962,-4.7
16963,147.7
16964,115.6
16965,162.8
16967,90.9
16971,151.7
16975,-12.4
16977,139.8
16984,164.3
16986,150.5
16989,-9.8
16991,96.3
16994,104.7
16995,138.6
16997,109.7
16998,95.7
16999,114.5
17001,10.8
17002,161.4
17003,132.4
17004,149.9
17013,-2.1
17016,129.0
17019,151.3
17021,94.6
17023,110.7
17024,135.2
17025,108.3
17026,-9.8
17028,166.0
17032,147.3
17033,120.8
17037,104.7
17038,136.1
17039,-4.7
17040,114.5
17043,114.0
17044,100.5
17046,114.2
17047,152.4
17051,-4.7
17054,106.1
17059,161.5
17062,91.4
17063,-9.8
17065,90.4
17066,148.4
17067,127.8
17069,155.1
17070,159.8
17071,111.5
17072,100.4
17073,161.2
17076,-15.0
17077,98.1
17082,165.1
17083,141.1
17084,94.4
17085,99.7
17086,153.0
17087,137.3
17089,-7.2
17091,90.6
17097,133.0
17100,120.2
17102,0.5
17104,163.8
17107,118.9
17111,107.9
17112,90.6
17114,-4.7
17116,149.0
17117,106.0
17118,124.7
17119,88.9
17120,114.9
17121,93.6
17122,84.4
17123,88.4
17125,138.9
17126,-15.0
17127,103.0
17129,102.9
17131,105.0
17132,87.1
17136,90.4
17138,97.9
17139,5.6
17142,96.5
17143,99.8
17147,115.5
17148,98.8
17150,5.6
17151,125.7
17160,157.5
17162,-2.1
17165,116.0
17168,107.0
17172,160.1
17173,86.0
17175,-12.4
17176,131.3
17180,167.3
17181,138.9
17184,123.6
17186,91.3
17188,-17.5
17190,128.7
17192,148.7
17193,114.4
17194,145.7
17195,114.1
17196,123.6
17197,138.3
17198,141.3
17202,-7.2
17204,87.6
17205,117.8
17207,164.4
17209,124.9
17210,85.6
17213,128.9
17214,-15.0
17218,154.7
17219,115.9
17221,86.2
17222,107.8
17225,125.1
17227,-7.2
17230,152.0
17231,101.1
17232,101.5
17234,153.1
17236,95.9
17239,154.7
17241,8.2
17245,138.3
17247,150.4
17248,104.1
17250,118.9
17251,107.7
17252,0.5
17253,132.6
17254,89.2
17256,85.2
17257,143.7
17258,140.9
17262,101.8
17263,-9.8
17266,140.6
17267,115.3
17268,160.4
17270,150.5
17272,130.9
17273,165.0
17275,-20.1
17277,143.9
17281,146.6
17286,137.5
17289,-4.7
17294,101.7
17295,93.2
17297,152.0
17298,167.8
17300,142.6
17302,-2.1
17305,133.3
17307,140.7
17308,92.6
17309,87.9
17311,156.3
17314,-7.2
17315,130.0
17317,90.6
17320,116.2
17326,128.9
17327,-15.0
17328,131.8
17329,122.0
17331,82.9
17333,105.8
17335,92.1
17337,110.6
17338,103.2
17339,133.5
17340,0.5
17343,136.8
17345,116.2
17346,93.9
17348,157.2
17349,163.9
17351,3.0
17354,116.5
17355,82.3
17357,97.0
17359,118.4
17361,145.2
17363,-7.2
17364,147.1
17365,129.3
17366,125.9
17368,113.5
17369,105.8
17370,82.9
17373,156.4
17376,-12.4
17377,161.8
17381,101.9
17382,148.5
17384,113.7
17386,101.8
17387,125.3
17388,107.6
17389,-4.7
17390,140.7
17391,135.5
17394,89.1
17395,117.1
17398,120.6
17400,158.1
17401,-7.2
17404,110.1
17406,89.3
17409,108.8
17414,-17.5
17415,161.0
17423,114.5
17424,100.7
17425,141.4
17427,-17.5
17429,111.7
17430,84.2
17432,96.0
17433,89.0
17434,86.0
17436,151.5
17437,89.6
17441,-4.7
17442,160.3
17443,103.0
17445,89.5
17449,110.4
17450,126.1
17452,136.6
17453,142.8
17454,-4.7
17457,130.7
17460,83.0
17462,101.0
17466,-12.4
17469,151.5
17470,156.2
17471,121.0
17472,124.4
17475,124.4
17476,155.7
17479,0.5
17481,142.1
17483,98.5
17489,111.7
17490,3.0
17491,125.0
17492,160.0
17494,158.8
17499,108.1
17503,-4.7
17505,93.1
17506,160.3
17507,142.1
17508,82.4
17512,90.0
17513,115.7
17515,-12.4
17516,128.5
17517,101.9
17518,136.6
17519,129.8
17521,109.6
17522,102.6
17526,115.1
17528,-2.1
17530,104.3
17533,147.0
17535,121.0
17537,153.6
17541,-2.1
17543,121.3
17544,156.4
17546,119.5
17547,87.2
17549,115.3
17551,101.3
17552,109.9
17553,-7.2
17554,164.1
17558,154.5
17561,162.1
17566,-4.7
17568,150.7
17569,121.1
17570,136.6
17571,154.4
17572,154.5
17575,137.0
17576,122.6
17577,102.3
17578,101.6
17579,13.3
17582,97.2
17583,131.9
17589,118.1
17590,153.3
17591,5.6
17592,144.4
17593,110.7
17595,146.9
17598,125.0
17600,166.3
17602,-9.8
17605,167.5
17606,111.3
17609,149.0
17610,108.0
17611,106.2
17612,127.9
17613,85.7
17614,-17.5
17615,108.1
17620,157.1
17622,119.7
17625,151.0
17628,-2.1
17630,154.6
17632,128.6
17633,167.2
17634,115.3
17639,155.7
17641,-4.7
17642,154.7
17644,95.9
17649,86.4
17653,-15.0
17654,133.1
17657,155.0
17661,158.6
17664,112.9
17666,131.9
17667,-9.8
17669,158.5
17671,151.0
17673,117.6
17678,92.1
17679,3.0
17680,91.2
17681,123.6
17682,167.4
17683,122.6
17686,108.4
17688,120.7
17690,3.0
17691,106.9
17692,145.9
17694,118.0
17697,121.7
17698,126.0
17701,150.0
17702,-4.7
17705,95.0
17707,115.3
17708,131.6
17710,107.5
17711,111.1
17712,163.1
17713,140.5
17715,-9.8
17722,147.2
17724,131.9
17727,-4.7
17728,134.4
17729,104.2
17730,140.9
17733,127.4
17734,112.0
17738,117.9
17739,0.5
17744,154.5
17745,114.6
17748,132.8
17751,-4.7
17752,133.4
17754,161.3
17755,164.0
17756,143.7
17757,117.1
17758,100.8
17759,93.4
17760,117.2
17762,129.1
17763,84.9
17764,-7.2
17765,148.0
17770,120.1
17776,5.6
17777,119.9
17779,121.2
17780,133.3
17781,122.3
17783,147.1
17784,99.6
17785,130.6
17786,153.0
17787,3.0
17789,94.4
17790,101.2
17791,122.3
17792,97.8
17793,146.1
17794,147.3
17795,120.2
17796,139.6
17797,89.3
17798,163.4
17799,5.6
17805,147.3
17806,167.0
17807,92.6
17808,129.6
17809,118.1
17810,0.5
17812,98.1
17813,150.2
17814,117.0
17815,165.1
17818,138.2
17819,96.4
17821,-9.8
17822,99.3
17823,101.9
17826,140.9
17832,148.8
17835,-15.0
17840,86.5
17844,94.3
17845,135.0
17846,161.9
17848,3.0
17850,103.7
17851,114.6
17855,149.7
17859,0.5
17860,152.0
17861,158.5
17862,153.8
17865,163.9
17866,114.5
17867,166.7
17869,104.2
17870,-7.2
17872,101.5
17873,160.9
17876,116.3
17877,111.6
17878,93.2
17879,111.3
17880,128.2
17881,115.7
17882,149.0
17883,-4.7
17884,133.5
17885,89.8
17886,125.5
17889,102.8
17890,143.5
17892,86.2
17893,149.6
17896,3.0
17898,156.1
17899,104.8
17901,127.7
17903,153.2
17905,110.9
17907,0.5
17910,127.7
17911,149.1
17912,111.3
17917,91.2
17918,3.0
17920,164.7
17922,136.3
17923,147.8
17926,126.7
17928,82.8
17929,96.3
17930,5.6
17931,112.1
17933,108.7
17938,94.3
17940,151.0
17941,-2.1
17947,109.9
17951,165.8
17952,117.3
17953,-12.4
17962,167.4
17963,165.5
17966,113.4
17968,0.5
17969,150.9
17970,123.3
17971,155.9
17972,163.8
17973,129.4
17974,136.8
17977,120.4
17978,116.1
17979,0.5
17981,140.4
17982,85.6
17983,144.1
17984,163.8
17985,96.5
17990,5.6
17996,103.4
17997,88.5
18000,123.3
18001,0.5
18003,159.6
18005,90.0
18008,165.3
18012,159.7
18013,-4.7
18016,130.2
18019,164.9
18020,161.3
18021,163.8
18022,148.7
18023,138.9
18025,-4.7
18026,128.4
18027,122.6
18028,127.1
18029,123.6
18030,161.1
18031,126.7
18033,99.5
18034,150.6
18037,88.6
18038,0.5
18039,150.9
18042,151.3
18045,130.8
18048,150.6
18049,96.9
18050,-2.1
18054,152.3
18055,122.8
18056,139.3
18060,115.7
18061,107.8
18062,-12.4
18064,118.7
18065,102.2
18067,147.4
18071,128.6
18074,125.6
18075,3.0
18077,122.5
18079,83.7
18081,88.8
18084,85.6
18085,127.3
18086,-7.2
18089,108.9
18090,140.9
18092,94.9
18093,83.8
18096,140.6
18098,144.8
18100,-4.7
18101,138.4
18102,82.3
18105,144.2
18111,124.1
18112,-15.0
18113,107.6
18117,163.5
18120,87.7
18121,105.7
18124,124.9
18125,-7.2
18128,93.8
18129,156.4
18131,87.9
18134,156.7
18135,105.1
18137,117.7
18138,3.0
18141,157.2
18143,109.5
18144,145.6
18149,0.5
18151,149.1
18152,112.6
18153,116.9
18154,140.5
18160,-9.8
18162,120.5
18167,105.7
18170,153.0
18172,101.8
18173,-12.4
18175,144.0
18176,86.8
18179,128.0
18181,148.0
18184,107.1
18187,-2.1
18189,128.7
18190,162.7
18191,98.2
18194,83.2
18196,165.2
18198,125.7
18199,-7.2
18202,124.4
18204,159.6
18205,141.2
18206,100.6
18211,-12.4
18220,128.0
18222,137.4
18223,118.7
18225,-4.7
18227,150.4
18230,156.3
18232,110.9
18234,166.1
18235,95.2
18237,93.6
18238,-4.7
18240,123.7
18241,105.0
18247,139.1
18248,111.4
18250,-12.4
18251,142.5
18252,135.4
18257,121.6
18258,90.2
18260,85.8
18263,91.2
18264,-17.5
18265,119.2
18266,134.4
18272,154.8
18276,123.6
18277,-2.1
18278,93.4
18279,135.1
18280,112.1
18288,131.1
18289,-7.2
18290,86.0
18292,155.0
18295,95.3
18296,144.2
18299,112.3
18302,-17.5
18304,102.5
18306,142.6
18307,165.4
18309,120.7
18310,82.3
18312,105.1
18313,137.7
18315,99.0
18316,-2.1
18327,123.0
18328,-7.2
18329,111.3
18331,95.9
18340,-17.5
18342,160.2
18343,111.6
18344,165.0
18346,136.3
18352,114.0
18354,-2.1
18355,109.8
18358,92.7
18364,118.9
18365,100.1
18367,-2.1
18371,134.0
18372,120.2
18378,106.3
18379,-17.5
18380,96.2
18388,83.7
18393,-17.5
18395,149.7
18397,110.7
18401,162.5
18402,108.0
18403,155.9
18405,167.6
18406,-4.7
18407,164.8
18409,160.7
18413,107.7
18418,-9.8
18426,151.7
18427,153.1
18430,132.1
18431,95.6
18432,-17.5
18433,93.2
18437,133.7
18439,126.5
18440,128.9
18441,141.6
18444,97.3
18445,-9.8
18447,138.2
18448,163.9
18449,165.2
18453,160.7
18456,144.6
18457,-12.4
18459,102.3
18460,161.5
18466,119.3
18468,149.9
18469,123.3
18470,-22.7
18472,157.8
18473,104.2
18478,98.4
18481,108.3
18484,-9.8
18491,136.2
18497,-7.2
18499,111.5
18500,108.2
18502,159.1
18505,126.6
18509,-12.4
18512,96.2
18514,165.8
18523,-17.5
18524,114.4
18526,123.0
18528,111.0
18530,116.9
18536,-7.2
18538,143.1
18540,108.4
18542,158.9
18544,156.5
18546,137.7
18548,-12.4
18549,153.8
18550,134.8
18554,131.1
18556,147.6
18559,101.5
18562,161.8
18563,-15.0
18565,137.7
18568,137.1
18569,92.8
18570,122.5
18571,156.3
18572,164.6
18573,135.9
18576,-2.1
18578,144.0
18579,130.8
18581,82.8
18585,87.7
18588,-12.4
18589,142.1
18594,123.5
18595,123.1
18597,93.0
18598,157.6
18601,-20.1
18602,116.9
18606,141.7
18607,165.3
18611,153.7
18614,92.8
18615,-4.7
18616,104.5
18619,95.2
18622,84.8
18623,117.5
18624,133.6
18626,86.6
18628,-9.8
18629,147.4
18631,143.7
18635,105.1
18638,153.4
18640,-15.0
18643,165.8
18645,160.5
18646,140.4
18647,94.8
18648,102.8
18649,163.2
18650,91.8
18652,121.6
18654,3.0
18655,152.5
18658,116.1
18663,160.4
18664,104.2
18665,-4.7
18666,164.6
18668,110.2
18669,131.2
18670,149.8
18673,157.6
18675,136.5
18676,126.9
18677,-15.0
18680,92.8
18681,134.5
18682,101.2
18684,166.2
18686,134.5
18687,166.7
18689,105.5
18691,-17.5
18692,150.9
18701,96.1
18705,3.0
18706,131.5
18708,136.8
18709,153.7
18710,164.8
18712,137.7
18713,109.8
18716,-2.1
18717,117.9
18721,117.7
18722,141.6
18723,149.7
18724,150.6
18728,-15.0
18730,89.1
18734,112.4
18737,156.2
18742,-12.4
18747,83.7
18749,96.5
18750,119.1
18752,160.5
18755,0.5
18756,145.8
18762,122.0
18765,149.0
18767,3.0
18769,116.6
18770,82.9
18771,143.9
18773,94.3
18775,130.4
18776,131.4
18779,-2.1
18782,142.5
18785,136.7
18786,119.2
18788,154.4
18790,117.0
18791,-2.1
18792,156.4
18793,137.5
18794,107.9
18795,120.8
18796,124.0
18798,154.4
18799,142.7
18802,109.4
18803,-2.1
18804,138.6
18805,86.5
18807,161.2
18808,97.1
18809,103.4
18812,116.4
18813,124.4
18814,94.4
18816,-7.2
18817,142.7
18821,87.3
18824,119.2
18825,163.7
18827,151.8
18829,-12.4
18830,105.0
18831,131.1
18833,135.5
18835,108.3
18836,101.9
18837,131.4
18838,132.5
18842,-9.8
18846,105.8
18847,155.4
18848,145.6
18854,3.0
18858,139.8
18860,156.4
18862,150.0
18864,141.2
18866,5.6
18867,97.0
18868,122.3
18872,141.7
18873,110.8
18877,-4.7
18879,99.0
18883,153.1
18887,153.0
18888,90.5
18889,-9.8
18890,101.0
18893,83.7
18894,123.4
18897,105.8
18899,103.4
18900,159.2
18903,-2.1
18904,140.4
18905,86.3
18906,166.8
18907,118.4
18908,90.7
18912,97.4
18913,107.2
18915,5.6
18916,122.9
18917,103.8
18919,136.5
18922,128.3
18925,98.4
18926,3.0
18927,152.4
18928,95.5
18929,102.8
18930,111.8
18932,109.9
18933,88.2
18937,-4.7
18939,86.1
18943,103.4
18945,93.4
18950,-4.7
18951,90.2
18952,84.4
18953,142.9
18955,113.4
18956,112.7
18962,128.0
18963,5.6
18964,124.9
18966,151.1
18970,164.2
18971,104.9
18973,167.8
18974,8.2
18978,86.5
18980,95.1
18981,159.0
18983,152.3
18984,140.1
18985,8.2
18988,163.4
18989,115.8
18992,88.1
18995,133.1
18996,95.4
18997,-2.1
18998,151.9
19001,155.6
19005,93.3
19006,102.0
19007,150.9
19008,85.1
19009,-7.2
19010,123.8
19011,126.5
19015,132.4
19017,154.6
19019,152.7
19021,-4.7
19022,145.0
19023,158.2
19024,159.7
19026,112.0
19028,145.9
19032,144.7
19034,108.7
19035,0.5
19036,164.6
19037,162.1
19041,165.8
19042,135.0
19046,-2.1
19051,157.2
19054,91.5
19058,-9.8
19059,141.5
19061,155.8
19065,109.0
19066,124.7
19067,92.4
19068,162.1
19070,3.0
19071,119.2
19074,101.8
19075,164.5
19077,136.3
19078,93.3
19080,105.9
19081,103.2
19082,3.0
19084,154.2
19085,119.0
19086,146.1
19087,93.5
19089,155.3
19092,139.7
19093,157.0
19094,3.0
19098,138.5
19099,158.7
19100,143.6
19102,102.4
19103,93.3
19105,3.0
19107,157.2
19108,82.1
19110,119.5
19111,88.3
19114,85.6
19117,-4.7
19118,95.2
19119,109.0
19120,130.4
19121,115.1
19122,151.5
19126,139.4
19127,118.1
19128,120.3
19129,-9.8
19130,157.4
19133,108.3
19136,141.0
19138,141.6
19141,-2.1
19142,118.3
19143,160.5
19147,125.4
19151,146.1
19152,133.0
19153,-2.1
19155,91.4
19158,88.8
19160,106.5
19161,146.9
19163,145.0
19167,-9.8
19168,155.1
19169,145.0
19176,133.6
19179,-7.2
19181,123.8
19185,126.2
19186,125.1
19187,90.4
19188,133.1
19189,85.3
19190,150.7
19191,13.3
19194,159.0
19195,138.5
19198,115.2
19200,102.9
19201,127.0
19202,117.1
19203,125.7
19204,10.8
19206,142.9
19207,145.1
19210,89.6
19211,152.3
19213,112.4
19216,-4.7
19217,118.2
19219,133.2
19220,167.4
19222,136.0
19224,138.8
19227,114.8
19229,-7.2
19231,167.4
19233,147.3
19238,128.1
19240,95.8
19241,-2.1
19243,123.2
19245,127.1
19246,83.0
19248,163.6
19249,143.5
19250,95.5
19254,-2.1
19255,82.2
19258,136.9
19260,129.6
19262,139.9
19264,163.2
19265,107.0
19266,-7.2
19267,95.3
19271,98.6
19273,100.1
19276,118.1
19278,-12.4
19281,83.5
19283,126.4
19286,144.5
19288,143.2
19291,84.5
19292,5.6
19293,127.9
19295,86.3
19297,116.4
19298,120.1
19301,158.1
19302,147.4
19303,132.2
19304,8.2
19305,167.0
19307,113.9
19308,137.2
19312,111.8
19313,106.4
19314,129.2
19315,-2.1
19317,117.4
19318,158.7
19321,104.4
19328,-9.8
19329,123.3
19330,130.5
19332,163.2
19337,114.6
19338,126.3
19339,117.9
19340,0.5
19345,114.0
19350,156.7
19351,13.3
19352,111.0
19356,124.3
19357,90.7
19361,118.5
19364,3.0
19366,112.5
19370,85.9
19372,139.5
19373,150.4
19375,152.6
19376,-7.2
19381,99.8
19383,108.1
19385,161.6
19386,89.7
19387,86.2
19388,-9.8
19389,135.8
19392,119.7
19397,132.6
19398,94.6
19399,143.9
19400,8.2
19402,93.6
19406,127.5
19411,15.9
19413,164.7
19414,118.9
19415,147.2
19423,100.4
19424,5.6
19428,148.3
19431,142.5
19436,-4.7
19438,123.5
19439,102.8
19441,140.2
19444,90.6
19446,124.6
19447,129.9
19448,0.5
19449,91.3
19450,149.3
19458,154.2
19460,-2.1
19461,91.3
19464,106.4
19465,123.3
19467,95.2
19468,155.3
19472,8.2
19475,94.3
19476,139.2
19478,93.9
19480,114.2
19483,10.8
19484,152.4
19489,111.0
19493,84.0
19495,87.0
19496,-4.7
19498,111.4
19499,132.7
19500,84.7
19502,167.4
19505,143.9
19507,139.3
19508,132.4
19509,3.0
19511,129.3
19518,100.0
19520,3.0
19521,154.8
19523,116.5
19524,121.4
19525,126.8
19531,5.6
19533,123.1
19535,108.6
19537,90.4
19538,100.5
19539,99.4
19540,150.2
19542,106.3
19543,10.8
19545,127.2
19546,148.4
19549,87.1
19553,84.6
19554,88.8
19555,0.5
19556,101.2
19558,95.5
19560,108.4
19562,162.6
19563,166.8
19565,124.3
19567,-4.7
19568,165.7
19569,105.9
19571,119.6
19574,130.9
19577,164.7
19578,117.5
19579,-2.1
19580,167.2
19583,117.5
19584,115.3
19586,126.0
19587,124.7
19588,98.7
19591,90.6
19592,5.6
19593,134.1
19596,114.5
19597,94.5
19598,95.3
19603,3.0
19605,148.9
19607,136.3
19609,86.8
19611,96.3
19613,103.5
19614,-4.7
19617,93.1
19618,159.1
19622,106.7
19624,114.0
19626,145.9
19627,120.8
19628,-7.2
19629,154.9
19630,164.0
19633,97.9
19634,88.8
19635,113.7
19637,130.5
19640,8.2
19643,85.7
19644,104.6
19645,161.4
19646,155.2
19647,96.3
19649,156.1
19650,157.9
19651,10.8
19655,83.0
19658,88.0
19659,116.6
19662,85.7
19663,0.5
19664,128.6
19665,91.9
19667,97.5
19668,131.8
19670,124.0
19671,129.6
19673,148.3
19675,-9.8
19677,123.8
19679,134.8
19681,132.2
19684,114.8
19686,98.7
19687,-2.1
19689,89.1
19692,94.1
19693,115.6
19694,109.8
19695,129.4
19696,151.8
19697,155.8
19698,108.0
19699,95.4
19700,8.2
19703,94.4
19704,150.7
19705,104.3
19706,129.8
19709,103.6
19711,128.8
19712,8.2
19720,115.8
19723,3.0
19725,144.3
19728,103.0
19729,121.7
19732,121.7
19733,107.8
19734,-4.7
19735,85.6
19740,163.1
19742,154.0
19743,156.9
19744,160.6
19745,84.7
19746,-2.1
19748,95.1
19750,140.4
19752,136.3
19753,151.8
19755,161.1
19756,149.8
19759,134.0
19760,5.6
19763,103.4
19765,131.3
19766,82.6
19767,89.3
19768,104.7
19769,162.0
19771,10.8
19772,149.8
19773,157.1
19774,130.8
19776,146.0
19778,153.5
19781,152.1
19782,151.2
19783,3.0
19784,134.9
19785,145.1
19786,154.8
19787,114.5
19791,138.6
19794,3.0
19796,133.5
19798,158.4
19799,144.5
19800,117.2
19802,129.5
19806,0.5
19807,148.8
19809,106.9
19814,165.3
19815,101.0
19817,3.0
19819,88.8
19821,90.0
19822,147.0
19824,126.3
19826,91.5
19828,155.8
19829,28.8
19830,155.5
19831,136.5
19832,108.8
19834,163.6
19836,111.4
19837,89.4
19839,142.5
19842,28.8
19843,95.5
19854,21.0
19857,136.7
19858,120.3
19861,132.5
19863,82.2
19864,108.8
19866,23.6
19869,85.3
19870,113.1
19871,82.1
19873,146.1
19875,150.1
19877,151.4
19878,28.8
19879,159.6
19884,121.0
19885,107.4
19886,152.3
19888,121.5
19889,100.3
19890,83.9
19891,28.8
19892,91.0
19894,151.6
19896,112.4
19898,160.3
19901,105.4
19902,122.7
19904,21.0
19905,163.4
19907,95.1
19910,110.2
19912,166.0
19914,133.6
19915,150.0
19916,26.2
19917,121.1
19918,105.0
19919,101.1
19920,155.8
19921,162.6
19922,104.8
19923,135.2
19925,131.9
19929,49.3
19930,161.2
19933,127.2
19934,82.3
19936,163.1
19940,103.2
19941,41.6
19943,91.2
19944,101.7
19945,146.3
19946,167.9
19948,106.8
19949,98.0
19950,136.2
19951,164.9
19953,31.3
19954,88.1
19958,153.7
19959,83.5
19960,96.4
19961,147.3
19963,120.8
19964,102.1
19966,41.6
19969,87.6
19971,137.5
19973,85.9
19974,124.0
19975,163.5
19979,49.3
19982,102.8
19983,140.9
19984,85.1
19985,84.3
19989,127.9
19990,116.9
19991,44.2
19993,110.6
19994,117.0
19995,90.1
19996,109.7
19998,116.1
20000,115.4
20002,106.8
20003,28.8
20005,87.3
20007,119.9
20008,163.8
20010,116.4
20012,133.6
20016,26.2
20021,157.4
20022,114.6
20027,136.7
20029,44.2
20031,132.2
20033,126.6
20034,105.4
20036,103.7
20037,88.0
20040,83.0
20041,41.6
20042,137.9
20044,116.9
20046,91.2
20047,167.0
20048,161.2
20049,121.2
20052,122.3
20054,31.3
20056,146.8
20060,120.2
20061,163.7
20062,147.8
20065,101.1
20066,39.1
20067,123.3
20068,131.4
20070,108.7
20071,99.0
20072,99.4
20076,167.2
20078,49.3
20081,85.2
20082,127.4
20083,91.5
20089,158.1
20090,36.5
20092,120.0
20094,131.3
20100,147.3
20103,153.6
20104,23.6
20109,167.4
20110,105.9
20116,28.8
20117,84.0
20119,161.3
20122,105.1
20123,107.3
20126,163.3
20128,49.3
20130,151.7
20131,110.7
20134,132.9
20136,120.5
20138,101.6
20139,102.1
20141,44.2
20145,138.9
20148,108.1
20149,130.6
20150,117.0
20151,142.3
20153,31.3
20154,111.5
20155,162.9
20158,101.7
20164,166.8
20166,39.1
20169,123.3
20173,140.5
20176,152.4
20178,44.2
20179,144.5
20180,113.0
20181,160.0
20184,157.4
20185,147.1
20186,108.8
20187,141.7
20191,39.1
20192,132.4
20194,97.5
20198,135.9
20199,166.3
20202,100.4
20203,23.6
20205,115.2
20208,91.6
20211,145.6
20212,123.1
20213,153.5
20215,31.3
20216,102.2
20217,167.5
20219,100.6
20223,130.8
20224,108.1
20225,118.8
20228,160.5
20229,44.2
20230,105.5
20231,124.6
20233,144.2
20234,161.9
20236,98.9
20237,146.2
20239,130.2
20240,112.0
20241,39.1
20243,127.2
20245,155.8
20246,165.4
20250,102.9
20252,135.5
20253,28.8
20254,156.5
20256,138.7
20257,115.4
20258,121.0
20261,90.0
20264,142.3
20265,46.8
20267,167.2
20268,164.5
20269,105.5
20271,99.3
20276,92.7
20278,49.3
20279,147.8
20280,160.9
20281,115.6
20283,162.6
20286,119.0
20288,113.4
20289,130.1
20290,33.9
20291,90.7
20292,157.1
20293,152.9
20295,121.8
20299,92.8
20301,157.8
20302,92.4
20303,21.0
20309,93.7
20311,84.1
20314,142.0
20315,132.5
20316,21.0
20318,134.7
20320,162.4
20321,113.9
20323,104.6
20324,108.0
20327,99.9
20328,36.5
20332,133.0
20334,141.7
20335,120.5
20337,90.7
20338,107.5
20339,166.0
20340,33.9
20342,137.5
20343,113.0
20346,82.4
20348,157.2
20351,133.5
20353,26.2
20354,102.4
20355,138.9
20356,122.9
20357,154.2
20358,90.5
20360,128.5
20362,116.0
20363,164.0
20364,132.2
20365,95.0
20366,44.2
20372,109.7
20373,134.0
20374,155.3
20376,86.7
20377,84.1
20378,39.1
20380,161.5
20381,115.5
20382,86.6
20383,86.1
20384,88.9
20388,164.4
20389,152.4
20390,28.8
20391,139.4
20394,146.5
20396,89.2
20397,110.1
20401,88.3
20403,18.5
20404,88.1
20406,132.3
20408,98.6
20411,104.2
20412,103.7
20413,148.3
20414,135.6
20415,36.5
20420,126.2
20428,46.8
20431,94.0
20432,89.5
20433,101.9
20435,86.0
20438,145.6
20439,126.0
20440,138.3
20441,36.5
20444,98.6
20445,155.4
20450,139.3
20453,23.6
20457,114.3
20458,131.3
20464,86.4
20465,46.8
20470,140.5
20474,163.7
20475,160.5
20477,49.3
20482,152.5
20483,155.3
20484,123.1
20485,98.9
20487,162.2
20490,36.5
20491,88.3
20493,104.7
20494,104.6
20495,92.7
20497,140.2
20499,163.2
20500,122.1
20501,136.0
20503,26.2
20504,136.0
20505,117.5
20508,159.5
20509,113.2
20510,109.3
20511,118.0
20512,134.1
20513,92.9
20515,31.3
20516,88.2
20518,167.3
20522,129.0
20524,157.6
20526,83.8
20527,100.3
20528,41.6
20534,89.0
20535,144.5
20536,116.2
20538,106.7
20540,28.8
20541,123.3
20542,87.4
20543,136.2
20547,165.8
20548,101.2
20551,84.5
20552,28.8
20554,98.3
20561,104.5
20565,92.0
20566,49.3
20567,136.0
20569,134.2
20570,118.4
20573,98.3
20577,160.5
20578,44.2
20579,134.4
20581,87.7
20582,154.9
20583,119.4
20586,83.3
20589,103.0
20590,28.8
20591,101.4
20592,131.7
20594,87.8
20595,131.2
20597,101.6
20600,97.5
20602,23.6
20603,111.5
20608,149.8
20610,127.9
20611,158.2
20612,136.6
20615,33.9
20617,116.6
20619,121.1
20620,90.7
20622,114.7
20623,133.8
20625,121.7
20626,104.4
20628,41.6
20635,154.7
20636,130.8
20637,154.7
20639,96.2
20640,36.5
20641,98.0
20642,97.9
20647,134.9
20648,147.5
20649,104.2
20650,140.8
20652,105.9
20653,28.8
20660,164.7
20662,150.9
20664,146.2
20665,49.3
20669,118.9
20671,142.5
20672,128.6
20674,125.6
20675,157.0
20677,41.6
20678,158.0
20679,88.4
20682,149.4
20683,101.1
20684,86.0
20686,104.1
20687,134.0
20688,126.7
20689,31.3
20690,109.6
20692,125.0
20696,89.3
20697,110.7
20700,142.4
20703,31.3
20706,133.1
20709,138.8
20710,141.7
20711,148.3
20713,160.2
20715,36.5
20716,142.1
20717,96.4
20719,123.4
20720,123.2
20723,134.4
20724,96.8
20725,112.6
20727,39.1
20728,90.4
20729,95.1
20732,143.3
20737,104.9
20739,115.6
20740,26.2
20744,102.2
20748,96.5
20749,117.5
20750,158.2
20752,31.3
20756,165.1
20761,116.0
20763,83.9
20765,51.9
20767,94.5
20768,109.9
20770,107.5
20775,128.0
20776,82.6
20777,49.3
20778,135.5
20779,111.6
20782,135.3
20783,130.8
20785,124.1
20789,148.2
20790,31.3
20791,144.0
20792,165.4
20793,150.5
20794,98.8
20795,153.4
20796,166.0
20797,155.3
20801,109.2
20802,31.3
20805,111.8
20806,130.5
20807,137.3
20808,94.6
20811,143.9
20812,105.2
20813,89.3
20814,33.9
20819,87.5
20822,140.1
20823,166.9
20824,164.8
20825,121.2
20826,100.8
20828,36.5
20829,127.4
20830,94.8
20832,112.5
20833,164.4
20836,121.8
20837,119.1
20838,90.9
20839,113.4
20840,23.6
20842,129.8
20843,144.8
20848,95.8
20850,99.9
20852,26.2
20854,150.5
20855,128.7
20860,113.1
20863,164.2
20864,84.8
20865,46.8
20867,163.5
20868,142.2
20870,131.7
20876,96.3
20877,36.5
20884,103.7
20886,136.8
20887,94.0
20889,23.6
20894,122.1
20895,164.7
20896,154.1
20897,96.7
20900,91.5
20901,158.4
20902,31.3
20903,140.7
20907,126.9
20909,99.4
20911,96.8
20912,120.0
20915,41.6
20921,143.6
20923,166.4
20925,147.6
20926,107.0
20927,39.1
20928,112.0
20935,97.8
20937,122.6
20938,82.6
20939,23.6
20943,135.1
20946,154.7
20947,129.3
20951,93.8
20952,21.0
20953,122.4
20954,153.3
20955,88.0
20958,140.6
20960,95.8
20961,134.7
20965,46.8
20966,119.0
20971,158.4
20973,136.1
20975,110.1
20976,95.5
20977,44.2
20978,144.9
20979,110.1
20981,110.6
20982,140.9
20983,83.7
20984,164.3
20987,158.1
20988,84.8
20989,33.9
20990,91.9
20993,108.1
20995,128.2
21002,41.6
21004,104.0
21005,93.1
21007,118.9
21008,96.9
21010,141.3
21011,83.1
21013,118.0
21014,39.1
21017,167.7
21019,93.6
21020,102.7
21021,85.3
21023,146.1
21024,127.5
21027,31.3
21028,82.2
21031,159.8
21032,139.6
21033,140.7
21034,157.4
21036,137.0
21037,99.0
21038,121.3
21040,21.0
21043,151.4
21049,131.4
21050,166.3
21052,18.5
21057,148.0
21059,94.2
21060,164.3
21064,41.6
21065,84.6
21070,134.1
21071,156.9
21072,143.0
21076,39.1
21077,101.0
21080,118.3
21083,159.4
21084,118.7
21085,115.2
21086,130.0
21087,144.5
21089,23.6
21090,108.3
21092,103.4
21093,155.8
21094,103.9
21095,105.9
21099,103.7
21100,163.1
21101,115.5
21102,31.3
21103,119.5
21105,104.7
21108,121.9
21112,84.6
21114,36.5
21117,129.0
21118,107.0
21121,145.2
21122,129.5
21124,90.6
21125,144.7
21127,28.8
21130,90.2
21131,117.0
21134,94.3
21135,163.3
21137,153.4
21138,96.6
21139,18.5
21140,82.3
21142,93.1
21143,90.2
21147,112.8
21148,109.3
21150,83.6
21151,21.0
21154,134.4
21164,151.3
21165,36.5
21169,134.9
21170,166.1
21173,117.8
21177,26.2
21178,144.8
21180,148.5
21181,92.5
21188,153.9
21189,15.9
21192,142.9
21194,114.0
21198,142.0
21201,28.8
21202,141.9
21205,93.5
21206,150.2
21209,129.5
21213,86.1
21214,31.3
21215,125.3
21216,129.1
21218,166.6
21219,137.7
21221,136.7
21226,102.2
21227,18.5
21229,161.2
21236,145.7
21238,164.1
21239,8.2
21248,155.2
21251,13.3
21257,108.3
21258,167.6
21259,97.0
21262,111.2
21263,33.9
21264,156.9
21265,99.1
21266,113.3
21267,148.4
21270,89.5
21272,160.7
21275,26.2
21276,148.8
21278,152.3
21279,109.5
21280,141.0
21282,153.8
21284,121.8
21287,18.5
21297,142.6
21299,129.5
21301,21.0
21303,97.2
21304,85.5
21307,89.1
21309,120.3
21313,28.8
21315,127.7
21318,83.6
21319,102.5
21321,103.9
21325,23.6
21329,164.9
21330,151.0
21331,127.9
21333,150.6
21336,82.6
21338,13.3
21339,147.3
21341,122.5
21344,154.0
