0,31.3
1,22.6
2,36.5
4,13.6
5,21.0
6,22.5
7,5.6
9,26.0
10,-12.4
11,17.9
12,-4.7
14,18.5
17,3.0
19,24.4
20,20.1
21,12.9
24,23.6
25,26.2
26,6.9
27,15.6
31,11.6
32,17.2
33,15.9
36,18.8
37,29.7
40,12.6
41,9.3
42,10.6
43,31.3
46,15.2
48,20.8
50,24.4
52,5.6
54,23.7
56,27.8
58,19.2
59,20.0
61,41.6
62,15.5
68,20.6
69,7.0
70,-17.5
76,20.3
78,14.8
79,30.7
80,39.1
82,11.5
84,24.4
86,19.1
90,-15.0
91,14.1
94,3.6
95,3.1
97,24.9
99,15.8
100,39.1
106,22.2
108,16.9
110,-22.7
112,18.7
113,22.2
120,26.8
121,33.9
122,11.0
123,10.7
129,29.7
130,8.4
132,20.0
133,10.8
137,17.1
143,31.3
147,11.5
148,14.5
149,9.8
153,15.9
156,26.5
158,17.5
160,20.6
162,8.8
163,26.2
164,23.5
165,18.0
166,17.9
169,30.9
170,11.2
174,15.9
184,15.9
185,19.4
187,3.8
193,11.1
195,13.3
201,3.3
202,19.9
205,13.3
206,21.6
210,17.4
211,14.0
212,3.3
213,30.0
214,6.3
216,8.2
217,27.9
224,3.9
225,13.3
226,14.2
227,29.9
229,4.1
230,14.2
231,18.5
232,28.2
234,3.5
235,8.2
236,18.2
237,10.6
239,26.3
241,13.0
242,5.9
244,15.9
245,9.2
247,18.6
249,18.1
251,18.6
254,10.8
256,27.5
257,25.5
259,12.2
261,11.5
263,25.8
264,18.4
266,8.2
268,20.3
272,23.6
273,10.3
275,10.8
276,26.9
277,30.9
284,18.5
285,8.2
286,14.6
294,10.8
295,27.2
296,3.4
297,28.9
298,15.5
299,13.4
300,3.4
305,13.3
306,3.0
307,4.3
309,12.7
310,13.9
313,22.0
314,5.9
315,5.6
317,27.9
318,24.8
319,13.0
321,8.7
322,28.5
325,13.3
330,29.6
335,8.2
339,13.8
341,5.7
344,10.3
345,13.3
346,18.8
349,26.1
351,30.4
355,8.2
358,21.6
363,28.1
364,18.5
366,11.2
367,15.6
368,4.5
369,24.3
371,28.6
372,28.5
374,8.2
375,21.3
376,17.9
377,7.5
378,27.6
381,25.5
382,3.9
383,20.7
384,15.9
385,8.7
386,13.4
388,22.3
389,4.3
391,10.6
393,11.3
395,10.8
396,29.6
397,10.1
404,19.8
405,10.8
409,29.3
410,14.0
412,10.7
414,12.6
415,3.0
417,14.8
419,28.3
421,14.2
424,10.8
425,28.7
429,7.6
432,29.3
433,13.6
435,5.6
436,25.0
440,6.5
444,13.3
447,12.1
451,12.6
452,19.7
454,5.6
461,27.4
462,6.8
464,13.3
466,29.1
469,24.5
470,8.2
471,26.9
473,6.5
475,8.2
476,3.2
479,9.6
480,29.1
481,21.1
484,15.9
485,11.3
486,25.2
487,10.2
488,11.6
489,28.2
491,11.5
494,10.8
496,11.1
499,25.0
500,13.4
503,9.2
504,10.8
508,15.2
509,7.8
512,26.7
513,25.9
514,18.0
515,3.0
516,11.8
521,16.7
522,5.3
524,6.8
525,13.3
526,12.3
527,12.7
530,5.8
532,22.6
534,27.1
535,5.6
537,19.7
540,3.1
541,10.0
544,10.8
547,6.6
548,8.2
549,5.6
555,5.6
558,27.3
560,29.0
561,24.8
564,13.3
566,9.6
569,24.8
573,7.0
574,8.2
576,30.2
579,16.9
580,14.9
581,10.6
583,13.3
585,21.0
587,23.5
591,20.3
593,18.6
594,8.2
595,22.9
596,12.0
597,12.1
598,8.1
601,21.7
602,7.8
603,26.6
604,13.3
612,6.9
613,27.1
614,10.8
617,5.8
619,6.2
620,17.1
621,16.7
622,20.2
623,15.6
624,8.2
625,4.5
628,28.7
629,17.8
631,20.8
633,10.8
638,13.2
642,19.8
643,10.2
644,10.8
645,15.7
647,10.5
651,9.4
652,13.3
654,3.0
655,9.0
657,24.6
664,10.8
665,11.3
668,27.5
670,23.5
671,26.9
672,11.3
673,26.3
674,5.6
676,26.6
678,6.3
680,19.3
681,22.7
682,30.4
683,15.9
684,13.3
685,10.3
688,26.7
690,19.9
694,8.2
695,4.0
698,9.5
699,17.3
703,15.9
704,3.8
705,8.5
706,17.8
708,14.8
709,27.5
710,4.9
711,8.6
713,8.2
715,26.1
716,17.6
721,19.8
722,15.9
724,8.1
725,29.2
727,17.4
729,17.2
730,27.9
731,25.7
734,8.2
738,18.6
743,15.9
745,12.9
746,7.9
751,18.2
753,10.8
754,8.5
755,11.0
756,18.5
758,8.2
763,8.2
764,22.2
765,11.8
766,6.4
767,22.4
769,14.4
773,10.8
775,26.3
776,9.0
777,12.2
778,9.3
779,25.7
781,25.0
783,10.8
784,4.4
785,17.3
786,27.2
788,13.0
790,22.2
791,8.3
794,5.6
798,10.8
800,13.7
801,5.5
803,10.8
806,16.4
809,23.8
810,29.1
811,19.6
812,14.1
814,5.6
818,29.1
821,30.6
822,9.3
823,10.8
829,25.8
832,6.8
833,10.8
836,19.9
839,10.2
840,13.5
842,25.2
843,8.2
846,10.3
847,28.4
850,4.5
851,19.5
852,8.2
853,19.4
855,3.8
858,4.0
859,4.4
862,19.7
863,15.9
865,12.5
867,9.4
869,3.5
870,28.4
872,26.3
873,8.2
877,22.1
879,12.5
880,5.7
882,18.5
885,5.4
888,19.6
892,10.8
893,21.6
894,11.1
895,11.0
896,21.2
897,13.9
899,23.6
901,17.4
903,10.8
905,17.5
907,20.3
910,29.3
911,26.5
913,3.0
915,20.2
921,15.8
922,13.3
923,13.4
925,7.8
928,28.5
929,13.4
933,5.6
934,24.7
935,16.7
936,20.8
937,19.0
941,24.1
943,13.3
946,6.5
948,17.5
950,6.1
952,19.6
953,8.2
956,8.0
959,5.0
961,23.9
962,15.9
963,16.0
968,18.1
970,21.5
972,8.2
973,21.6
975,20.7
981,5.1
982,15.9
983,6.9
986,17.8
989,8.3
991,20.0
993,10.8
994,27.1
998,28.2
999,15.9
1000,28.9
1001,24.0
1002,17.8
1003,10.8
1004,28.6
1007,10.4
1008,12.2
1009,5.8
1010,10.4
1014,-2.1
1017,28.9
1018,14.9
1020,24.3
1022,7.5
1024,30.9
1025,30.5
1026,-9.8
1027,5.9
1031,8.1
1032,9.1
1034,3.8
1036,17.8
1037,39.1
1038,12.6
1039,15.2
1040,18.0
1041,24.7
1042,19.2
1048,3.0
1049,20.1
1051,30.6
1052,26.4
1059,33.9
1062,5.2
1063,29.5
1066,12.4
1067,3.3
1071,18.5
1073,26.0
1075,23.7
1076,20.3
1078,28.7
1079,30.0
1080,23.2
1082,13.3
1086,20.6
1087,7.7
1090,6.0
1092,16.1
1093,0.5
1094,4.3
1097,11.8
1098,18.7
1100,14.9
1102,14.8
1103,0.5
1111,8.8
1114,-4.7
1116,26.0
1121,13.5
1122,20.6
1124,21.4
1126,-15.0
1128,23.8
1129,18.1
1131,3.6
1134,23.2
1135,29.9
1138,36.5
1139,3.3
1140,26.4
1143,11.9
1144,6.5
1145,14.0
1148,23.9
1149,18.5
1150,6.4
1153,19.1
1154,25.0
1158,5.2
1160,10.0
1161,21.0
1162,27.0
1164,6.5
1166,19.1
1167,16.3
1172,8.2
1173,6.8
1174,27.3
1178,12.8
1180,9.8
1181,14.9
1182,3.0
1184,19.1
1185,22.3
1187,12.2
1189,18.0
1190,5.8
1191,17.1
1193,0.5
1194,6.4
1195,10.9
1197,4.7
1198,6.8
1199,8.9
1200,15.9
1201,14.2
1204,0.5
1207,28.4
1210,29.1
1212,25.3
1214,0.5
1215,17.9
1216,8.8
1218,24.2
1219,6.9
1221,15.3
1222,9.1
1223,12.8
1224,-7.2
1229,23.2
1230,14.2
1231,9.9
1233,12.9
1234,25.4
1235,36.5
1239,4.7
1241,3.2
1247,-15.0
1248,12.3
1250,12.0
1251,27.5
1252,24.0
1253,30.2
1255,5.5
1257,20.7
1259,11.2
1260,26.2
1261,21.6
1266,5.4
1268,12.4
1269,13.8
1271,10.8
1273,13.5
1275,19.4
1277,18.9
1279,13.0
1280,25.1
1283,5.6
1288,6.2
1289,13.6
1290,9.9
1292,29.8
1293,-2.1
1297,20.2
1301,21.5
1304,-9.8
1308,26.5
1311,28.5
1315,39.1
1316,16.2
1318,8.1
1319,3.8
1320,7.4
1323,19.6
1325,30.9
1326,21.2
1328,-2.1
1330,14.5
1339,28.8
1341,12.6
1342,10.0
1350,15.9
1357,8.0
1358,5.3
1359,25.6
1361,10.8
1362,10.2
1365,25.9
1367,22.1
1368,5.1
1369,28.0
1371,20.5
1372,22.5
1373,-4.7
1375,29.8
1376,12.1
1381,28.0
1383,12.4
1384,-12.4
1386,27.4
1387,20.8
1390,11.4
1391,26.2
1392,4.2
1394,13.5
1397,39.1
1401,6.5
1403,8.3
1406,18.7
1409,18.5
1413,3.0
1414,16.7
1418,9.0
1419,10.4
1420,18.5
1423,16.6
1424,8.8
1425,6.8
1426,27.0
1430,27.4
1431,5.6
1432,10.4
1436,10.3
1438,10.6
1439,6.2
1441,5.6
1442,24.1
1443,9.4
1444,11.9
1445,8.9
1447,3.6
1450,14.5
1451,25.3
1452,0.5
1453,14.7
1454,14.3
1459,22.5
1461,27.1
1462,21.5
1463,0.5
1465,20.0
1468,30.0
1473,-4.7
1474,28.8
1478,19.0
1479,7.8
1481,18.0
1484,-12.4
1485,27.0
1486,29.3
1487,17.3
1489,24.4
1493,27.4
1494,24.1
1495,12.8
1497,33.9
1506,27.0
1508,15.9
1509,9.6
1510,26.3
1511,12.2
1513,24.0
1515,15.7
1516,26.7
1518,6.5
1519,18.5
1525,10.4
1528,8.5
1530,21.0
1531,5.6
1532,14.9
1533,18.5
1535,18.7
1537,6.4
1540,6.0
1542,5.6
1544,13.7
1545,26.3
1547,10.6
1548,23.2
1549,26.2
1550,8.7
1552,-2.1
1555,29.5
1556,19.5
1561,24.3
1562,28.2
1563,-9.8
1564,17.2
1565,8.8
1570,16.2
1574,39.1
1577,21.3
1578,13.1
1580,17.3
1581,23.5
1583,9.0
1584,11.0
1586,-4.7
1587,16.3
1588,3.4
1591,10.0
1592,9.5
1595,3.2
1596,3.3
1597,28.6
1598,31.3
1604,29.4
1605,12.8
1609,15.9
1610,17.4
1611,20.8
1617,14.7
1618,3.6
1620,10.8
1621,18.3
1628,14.1
1629,12.8
1630,25.1
1632,-2.1
1634,30.2
1636,28.9
1637,4.9
1638,26.7
1640,27.1
1641,9.5
1643,-12.4
1644,5.4
1651,4.0
1652,21.3
1653,15.6
1654,6.8
1656,39.1
1657,10.5
1660,10.8
1661,3.6
1662,22.8
1666,16.9
1668,13.3
1669,19.6
1670,22.7
1671,5.8
1673,9.0
1675,10.6
1679,21.0
1680,30.9
1682,9.7
1683,18.4
1685,5.1
1687,20.4
1688,23.0
1690,5.6
1691,11.7
1692,29.7
1696,28.9
1697,7.0
1699,10.8
1700,5.6
1703,29.7
1704,3.8
1705,23.4
1706,18.6
1709,7.2
1710,13.9
1711,0.5
1712,10.2
1714,29.1
1720,14.4
1721,8.1
1722,0.5
1723,13.4
1724,30.8
1725,26.6
1727,25.2
1730,8.2
1731,3.4
1732,-4.7
1733,26.3
1734,22.4
1736,21.9
1738,7.8
1740,5.8
1743,-12.4
1744,17.9
1745,20.4
1747,4.0
1749,11.6
1753,17.7
1755,5.8
1756,39.1
1760,13.7
1761,4.4
1762,3.3
1764,18.3
1766,15.6
1767,15.9
1774,21.3
1775,4.6
1778,18.5
1780,29.0
1785,24.8
1790,5.6
1792,3.9
1794,12.4
1795,25.2
1796,13.9
1798,25.5
1800,23.2
1801,5.6
1802,5.0
1803,13.1
1809,14.5
1810,18.2
1811,0.5
1812,3.9
1813,12.5
1815,16.3
1817,11.8
1818,4.7
1819,16.9
1821,-2.1
1822,6.8
1829,29.7
1832,26.2
1837,18.8
1838,3.3
1839,25.4
1842,9.1
1843,15.9
1844,-22.7
1846,8.3
1847,24.8
1848,21.3
1850,7.8
1852,5.6
1855,8.7
1857,31.3
1862,25.8
1863,18.9
1864,23.8
1865,16.2
1866,5.1
1868,15.9
1870,13.9
1873,7.0
1876,6.4
1877,25.5
1879,10.1
1880,8.2
1883,27.4
1885,22.9
1886,10.8
1887,14.4
1888,6.1
1890,3.0
1893,16.9
1894,18.9
1895,18.3
1899,30.8
1900,5.6
1903,4.9
1905,26.4
1907,15.7
1908,11.6
1909,14.4
1910,-2.1
1912,30.5
1914,7.1
1915,9.3
1916,11.4
1919,27.0
1923,-9.8
1928,29.1
1930,6.7
1934,39.1
1936,13.1
1937,5.6
1940,14.1
1943,7.0
1945,-2.1
1948,8.1
1949,28.5
1953,10.6
1954,5.3
1956,31.3
1959,29.7
1960,28.6
1964,21.6
1968,15.9
1969,3.5
1973,10.6
1979,8.2
1981,23.8
1982,15.5
1983,26.6
1984,27.7
1986,13.5
1990,0.5
1992,3.6
1993,21.9
2000,0.5
2001,14.8
2003,20.5
2004,11.8
2008,9.3
2009,6.7
2011,-4.7
2012,14.5
2013,21.2
2015,19.9
2020,11.4
2022,-9.8
2024,18.6
2025,30.2
2027,22.0
2028,10.6
2029,12.7
2030,22.4
2031,19.4
2033,39.1
2034,12.8
2035,13.7
2037,6.7
2039,6.0
2043,21.7
2044,3.0
2047,12.0
2048,29.0
2050,19.3
2051,26.6
2056,33.9
2057,7.8
2060,15.0
2065,27.7
2067,18.5
2068,30.8
2069,22.7
2070,23.5
2073,25.5
2074,27.8
2075,10.1
2078,13.3
2081,18.6
2083,25.2
2085,28.4
2087,17.4
2088,14.8
2089,0.5
2091,9.0
2092,13.6
2093,4.6
2095,3.3
2096,17.7
2097,11.7
2098,10.2
2100,0.5
2102,17.3
2103,9.5
2105,26.0
2107,18.6
2108,5.5
2109,18.8
2110,-4.7
2114,19.0
2115,16.7
2116,20.4
2118,18.9
2119,5.4
2121,11.4
2122,-12.4
2123,4.4
2124,19.0
2125,23.3
2126,17.8
2127,26.1
2130,28.0
2133,30.3
2135,36.5
2138,14.0
2139,29.9
2140,20.5
2141,26.3
2142,25.0
2144,30.4
2145,10.8
2146,15.9
2147,10.5
2150,15.2
2152,15.6
2153,29.6
2154,17.1
2156,6.3
2157,18.5
2160,19.1
2162,17.8
2163,11.9
2164,15.1
2168,5.6
2170,7.1
2173,27.0
2174,7.7
2175,30.9
2178,8.6
2179,5.6
2183,23.4
2184,22.2
2190,0.5
2191,23.8
2193,27.3
2196,13.1
2197,12.2
2200,0.5
2202,27.6
2204,24.3
2208,3.1
2210,-2.1
2212,3.6
2215,18.4
2216,13.6
2217,25.2
2218,23.8
2220,30.8
2222,-15.0
2223,15.7
2225,19.6
2228,20.1
2234,36.5
2236,3.1
2239,17.6
2241,24.5
2242,18.9
2245,18.5
2246,5.5
2247,10.1
2249,14.4
2251,3.1
2252,19.2
2254,27.0
2256,5.6
2257,15.9
2259,18.9
2260,23.8
2261,7.3
2262,9.6
2263,22.2
2265,8.6
2268,15.8
2269,5.6
2271,26.3
2272,21.9
2276,29.5
2278,19.2
2279,3.0
2280,15.9
2281,23.1
2282,4.3
2284,3.2
2286,25.3
2289,-2.1
2290,12.4
2291,18.2
2292,26.6
2293,5.3
2294,26.9
2296,28.5
2298,14.9
2300,-9.8
2302,31.0
2303,13.9
2305,4.1
2306,3.6
2308,19.7
2312,39.1
2315,26.6
2319,19.5
2320,10.8
2323,9.1
2324,-2.1
2325,15.2
2326,27.9
2327,23.2
2328,9.8
2329,15.5
2331,29.0
2335,28.8
2336,17.7
2337,5.4
2338,5.6
2340,19.9
2341,21.1
2343,22.4
2344,12.2
2347,15.9
2348,7.0
2349,19.1
2352,25.5
2355,7.2
2358,8.2
2362,3.5
2364,20.8
2366,25.5
2367,21.6
2368,3.0
2370,4.9
2371,8.7
2372,24.4
2373,10.8
2378,3.0
2379,14.5
2381,15.5
2382,13.5
2383,19.1
2386,19.7
2390,-2.1
2394,10.9
2398,27.9
2399,10.7
2400,14.3
2401,-7.2
2407,15.4
2410,23.1
2412,39.1
2417,5.7
2418,18.4
2419,10.5
2422,21.0
2423,0.5
2425,3.4
2426,6.9
2430,24.6
2431,28.5
2434,33.9
2435,22.3
2437,7.3
2438,6.9
2440,9.2
2445,18.5
2448,15.5
2449,28.8
2450,11.1
2452,3.0
2453,29.9
2454,14.0
2455,3.9
2456,12.7
2457,15.9
2459,27.8
2464,16.9
2466,22.3
2467,28.3
2468,0.5
2469,16.1
2471,25.1
2473,13.0
2479,0.5
2481,30.2
2489,-4.7
2490,14.5
2493,7.5
2497,29.1
2500,-9.8
2502,12.6
2504,15.7
2510,3.2
2511,39.1
2512,5.4
2513,20.4
2515,30.8
2517,18.7
2519,6.9
2522,22.6
2523,6.0
2524,3.0
2525,6.3
2527,14.7
2528,4.9
2534,33.9
2537,7.9
2538,20.7
2545,15.9
2547,12.2
2548,18.8
2551,11.0
2556,13.3
2559,27.3
2560,14.1
2561,27.7
2563,4.7
2567,19.8
2568,0.5
2574,9.1
2577,10.4
2578,0.5
2581,14.4
2582,4.5
2583,6.6
2585,9.8
2586,7.0
2587,5.4
2589,-4.7
2591,5.5
2592,27.6
2595,28.4
2597,8.6
2599,28.3
2600,-12.4
2602,18.9
2608,30.7
2609,20.6
2611,4.9
2613,36.5
2614,5.5
2615,3.8
2620,28.3
2624,18.5
2626,29.5
2630,23.0
2633,3.3
2634,23.6
2635,18.5
2637,15.2
2639,12.1
2640,29.8
2641,24.6
2643,23.5
2644,30.3
2645,10.2
2647,5.6
2649,13.7
2652,4.3
2653,27.5
2655,21.3
2656,28.0
2658,5.6
2659,30.4
2661,14.7
2662,9.1
2664,20.8
2666,13.7
2668,-2.1
2670,30.1
2672,6.0
2678,5.5
2679,-7.2
2680,9.6
2682,13.2
2683,23.1
2684,25.4
2687,30.5
2688,30.0
2691,39.1
2693,11.7
2695,26.7
2696,10.3
2700,12.8
2702,-4.7
2703,29.9
2706,5.3
2707,31.0
2708,18.0
2709,7.6
2710,11.9
2711,5.8
2713,28.8
2715,22.0
2719,26.1
2720,21.7
2724,8.1
2725,15.9
2726,15.7
2728,3.1
2731,14.0
2733,14.7
2734,25.7
2735,29.2
2736,29.1
2737,10.8
2738,24.9
2741,29.7
2743,27.0
2744,10.7
2745,5.1
2746,28.9
2748,-4.7
2750,27.6
2753,27.7
2755,14.4
2759,-9.8
2763,18.3
2764,17.3
2766,26.6
2767,25.1
2770,41.6
2772,11.2
2773,16.1
2774,5.3
2775,7.5
2776,4.7
2778,8.8
2779,3.4
2782,3.0
2784,14.6
2785,29.1
2789,25.6
2793,33.9
2797,11.5
2801,18.8
2803,30.8
2804,18.5
2805,30.3
2806,6.5
2807,11.8
2809,10.6
2811,8.9
2812,4.5
2815,23.3
2816,15.9
2819,27.6
2820,24.1
2821,18.3
2824,29.5
2827,0.5
2828,7.2
2829,12.4
2831,20.8
2833,26.6
2835,19.9
2837,0.5
2838,24.0
2839,7.6
2840,10.2
2843,25.0
2847,-4.7
2849,3.5
2850,14.2
2852,22.3
2854,25.4
2855,21.0
2856,5.5
2857,6.5
2859,21.8
2860,-12.4
2862,20.1
2864,24.7
2867,18.3
2868,5.2
2872,36.5
2875,7.1
2878,10.0
2879,27.0
2883,15.9
2884,15.0
2885,11.6
2886,12.4
2887,19.4
2888,11.1
2889,27.5
2890,17.1
2892,8.0
2893,4.8
2894,18.5
2898,17.5
2901,19.4
2902,14.8
2905,3.6
2906,5.6
2911,14.3
2913,10.3
2915,24.7
2916,5.6
2917,12.7
2921,5.8
2924,5.8
2926,4.2
2927,-2.1
2928,5.6
2929,25.8
2930,13.4
2934,8.5
2936,24.0
2937,5.3
2938,-9.8
2939,23.3
2941,9.9
2943,3.8
2944,22.8
2947,4.4
2949,20.1
2950,39.1
2953,29.6
2954,14.9
2959,26.1
2960,9.7
2961,-9.8
2965,7.0
2967,23.0
2970,21.0
2971,17.1
2972,31.3
2973,4.5
2974,4.6
2975,7.6
2976,31.0
2978,8.6
2979,19.7
2981,18.4
2982,19.6
2983,15.9
2996,8.2
3006,3.0
3011,19.9
3012,29.8
3014,5.2
3015,25.6
3016,3.0
3017,3.9
3020,3.4
3022,11.3
3024,29.2
3025,25.8
3026,-2.1
3027,9.7
3029,24.0
3030,16.9
3031,5.8
3032,26.0
3033,24.3
3034,18.5
3036,4.3
3037,24.0
3038,-9.8
3039,27.8
3040,24.2
3041,27.8
3043,7.4
3045,30.7
3048,12.9
3049,39.1
3052,23.0
3054,30.4
3055,30.7
3057,23.2
3059,10.2
3060,19.3
3061,-2.1
3062,11.0
3063,30.4
3064,16.1
3066,17.7
3069,27.3
3070,28.8
3073,31.3
3074,20.6
3077,5.2
3078,29.8
3080,12.5
3084,15.9
3086,12.5
3089,7.6
3091,6.3
3095,8.2
3096,16.2
3099,7.7
3102,17.8
3103,27.3
3105,3.0
3107,15.4
3111,23.9
3113,16.2
3116,3.0
3119,24.8
3121,19.8
3122,4.6
3123,9.3
3127,-4.7
3130,6.1
3133,14.6
3135,14.9
3137,18.5
3138,-12.4
3139,17.3
3143,24.8
3144,16.2
3145,26.4
3146,6.6
3147,8.7
3150,39.1
3152,19.7
3153,24.2
3157,20.7
3159,13.8
3160,16.5
3162,15.9
3163,24.7
3165,18.0
3166,16.6
3167,26.5
3168,4.1
3169,27.6
3170,18.7
3171,6.0
3172,28.3
3173,21.0
3174,8.1
3175,11.0
3176,3.4
3178,23.2
3179,18.4
3180,25.0
3184,8.2
3186,16.0
3187,30.2
3188,3.9
3190,7.8
3191,10.2
3193,27.3
3195,8.2
3196,8.4
3197,24.5
3199,9.0
3201,14.1
3202,8.2
3206,0.5
3207,30.2
3209,6.4
3212,19.4
3214,25.1
3216,0.5
3219,13.8
3220,21.7
3221,13.7
3222,12.9
3223,15.8
3226,-7.2
3229,14.2
3230,16.2
3231,13.9
3234,15.4
3236,22.1
3237,-12.4
3238,4.9
3240,20.4
3241,6.3
3244,19.2
3245,30.5
3247,29.1
3248,22.5
3249,29.3
3250,36.5
3252,29.4
3256,5.5
3258,4.5
3262,15.9
3264,6.2
3265,14.4
3269,11.3
3271,7.1
3273,18.5
3274,5.0
3275,16.4
3276,3.3
3278,8.5
3279,4.3
3281,29.3
3283,25.8
3284,5.6
3286,17.6
3287,10.2
3288,24.9
3289,10.9
3290,8.9
3291,23.9
3292,6.2
3293,18.1
3295,5.6
3299,9.2
3300,6.8
3301,18.2
3302,11.2
3304,4.8
3305,-2.1
3306,3.7
3309,11.4
3310,6.0
3311,14.9
3313,25.7
3314,5.1
3315,3.4
3316,-9.8
3317,27.0
3318,4.3
3321,5.8
3323,28.5
3324,13.6
3326,23.2
3327,24.4
3328,23.0
3329,36.5
3334,30.7
3337,22.6
3338,14.3
3340,-9.8
3341,25.2
3343,9.5
3344,27.3
3351,28.8
3355,20.2
3360,12.2
3362,15.9
3365,11.7
3369,5.5
3374,8.2
3377,3.1
3384,8.2
3385,3.5
3386,6.3
3388,24.3
3392,28.5
3395,3.0
3398,14.8
3399,24.5
3400,7.4
3404,17.2
3405,-2.1
3406,25.6
3408,25.0
3409,27.0
3411,6.4
3414,16.2
3415,18.5
3417,-7.2
3418,12.0
3422,24.4
3424,27.2
3427,6.8
3428,39.1
3432,24.6
3436,28.4
3439,-4.7
3440,28.4
3441,12.2
3446,5.8
3450,28.8
3451,9.6
3452,13.4
3453,18.8
3454,17.2
3455,12.6
3456,10.3
3457,13.5
3458,29.3
3460,4.3
3463,13.3
3467,21.8
3469,19.8
3470,7.5
3471,23.6
3472,3.5
3473,11.3
3474,8.2
3475,11.2
3476,24.2
3479,26.6
3483,13.4
3484,3.0
3486,10.8
3490,24.6
3492,16.1
3493,4.0
3494,3.0
3497,4.8
3498,5.8
3502,15.9
3503,4.7
3505,-4.7
3510,17.0
3512,6.4
3514,13.8
3515,10.4
3516,-9.8
3520,21.3
3521,17.9
3522,21.0
3524,9.4
3528,39.1
3533,21.6
3534,4.7
3538,5.7
3539,3.0
3540,11.9
3542,30.4
3545,17.8
3547,24.7
3548,27.9
3550,33.9
3551,11.3
3553,5.0
3555,11.4
3556,26.7
3558,22.8
3560,21.8
3561,18.5
3566,13.7
3567,7.5
3569,7.8
3571,10.3
3572,13.3
3580,24.0
3582,22.2
3584,0.5
3586,14.3
3587,7.1
3590,15.6
3591,18.5
3592,26.3
3595,0.5
3600,30.9
3601,15.6
3605,-4.7
3607,15.0
3608,6.8
3609,15.5
3610,28.0
3614,22.1
3616,-12.4
3617,7.0
3619,29.5
3622,27.1
3623,22.8
3625,29.4
3627,8.8
3629,36.5
3633,18.4
3637,28.8
3638,16.3
3640,15.9
3642,22.4
3647,13.0
3649,6.5
3651,18.5
3654,28.0
3656,15.1
3657,17.1
3658,16.3
3659,4.5
3660,28.1
3662,22.4
3663,5.6
3668,25.3
3669,17.5
3671,29.2
3672,30.8
3673,19.6
3674,5.6
3675,9.5
3678,4.6
3680,12.4
3682,13.4
3683,9.6
3684,0.5
3686,3.2
3688,25.1
3690,22.2
3694,-2.1
3695,29.4
3700,19.9
3703,7.1
3705,23.6
3710,8.6
3711,14.7
3714,5.3
3716,28.3
3717,-20.1
3720,19.7
3721,15.6
3723,29.6
3726,24.7
3727,11.8
3729,22.1
3730,31.3
3731,23.7
3733,14.5
3736,4.6
3741,15.9
3743,16.3
3745,19.7
3747,16.0
3750,22.9
3751,12.6
3752,10.8
3760,7.4
3761,26.8
3763,19.4
3764,-2.1
3765,27.2
3767,9.8
3768,24.9
3769,10.3
3770,26.7
3771,16.4
3773,27.1
3774,24.0
3775,-12.4
3776,6.6
3779,23.4
3780,8.0
3786,22.8
3787,7.9
3788,36.5
3790,21.0
3791,16.5
3792,6.0
3793,5.1
3794,16.0
3795,13.4
3796,27.8
3798,14.9
3800,13.3
3801,6.4
3804,16.8
3808,14.8
3811,21.0
3815,4.6
3816,11.2
3820,20.3
3821,18.2
3822,8.2
3823,6.2
3824,10.5
3825,18.5
3828,19.2
3830,9.5
3832,8.2
3834,13.5
3835,29.3
3837,26.4
3838,29.7
3839,3.2
3841,19.4
3842,25.6
3843,0.5
3844,8.2
3847,28.2
3848,23.9
3850,30.9
3851,30.6
3854,0.5
3856,25.3
3857,3.4
3861,30.9
3864,-4.7
3867,27.9
3868,8.2
3869,14.1
3871,16.9
3872,5.2
3875,-12.4
3877,14.8
3881,3.7
3883,5.0
3886,16.0
3888,36.5
3890,27.8
3891,3.5
3892,9.0
3896,30.9
3897,14.2
3899,15.9
3903,8.4
3904,27.8
3906,4.1
3909,12.6
3910,18.5
3911,3.3
3914,3.9
3915,19.3
3917,8.8
3918,14.6
3919,15.8
3922,3.0
3924,10.1
3925,10.8
3928,19.2
3929,26.9
3931,27.2
3932,15.3
3933,8.2
3936,18.8
3938,24.9
3940,15.1
3941,9.8
3942,18.5
3943,0.5
3944,18.1
3946,29.8
3948,3.9
3950,14.1
3952,29.0
3953,-2.1
3954,10.3
3955,7.4
3960,12.8
3961,23.4
3963,25.9
3964,26.2
3966,18.4
3967,6.0
3970,19.9
3971,23.7
3973,9.3
3976,-20.1
3979,15.9
3981,7.4
3985,24.2
3987,8.0
3989,31.3
3991,27.1
3998,7.5
3999,19.0
4000,15.9
4001,26.0
4002,9.2
4004,21.3
4006,11.4
4008,24.6
4012,8.2
4015,25.9
4022,5.6
4023,4.7
4024,26.3
4029,23.1
4032,3.0
4034,15.7
4035,21.1
4038,26.1
4039,15.7
4041,7.7
4042,-2.1
4043,21.0
4044,13.0
4046,8.8
4047,16.7
4048,20.5
4050,20.5
4051,13.5
4052,15.7
4055,-9.8
4057,3.0
4060,27.1
4061,15.2
4063,25.8
4064,14.7
4066,39.1
4072,16.9
4076,13.2
4077,-9.8
4079,14.6
4080,27.4
4081,7.8
4084,18.3
4085,21.6
4088,28.8
4092,28.8
4095,18.8
4098,26.6
4099,7.8
4100,15.9
4104,4.3
4109,8.2
4111,8.2
4112,5.2
4113,13.4
4114,26.1
4122,3.0
4123,11.4
4125,25.8
4129,20.4
4132,3.0
4133,10.8
4137,18.2
4138,28.6
4139,19.4
4140,7.9
4143,-2.1
4144,7.4
4147,29.8
4149,9.9
4150,7.9
4153,29.8
4154,-9.8
4157,9.9
4158,4.9
4160,7.3
4162,13.5
4165,39.1
4166,21.3
4167,12.3
4171,26.9
4173,4.7
4176,-2.1
4179,20.3
4185,23.4
4187,30.7
4188,10.9
4189,28.8
4193,25.3
4200,15.9
4205,22.1
4206,3.9
4211,8.2
4214,26.9
4216,19.3
4219,25.8
4220,25.6
4221,0.5
4223,11.0
4227,24.9
4228,20.5
4229,24.1
4232,0.5
4235,9.9
4237,27.5
4238,11.2
4239,9.9
4242,-4.7
4246,28.7
4247,19.6
4251,6.7
4254,-12.4
4256,25.7
4258,3.7
4259,18.8
4260,23.7
4263,31.0
4264,9.5
4266,6.5
4267,36.5
4275,30.0
4276,10.5
4278,13.3
4281,10.6
4283,7.5
4284,19.2
4285,15.4
4287,12.3
4288,19.8
4289,21.0
4291,11.8
4292,27.5
4293,19.8
4300,5.6
4302,6.7
4305,4.6
4306,7.0
4307,30.1
4308,14.2
4310,5.1
4311,5.6
4312,15.9
4313,19.5
4316,10.8
4319,4.8
4320,3.4
4321,8.1
4322,0.5
4328,24.7
4329,10.5
4330,5.6
4331,8.7
4332,0.5
4333,15.5
4334,20.4
4335,25.3
4336,19.4
4337,8.1
4339,15.5
4340,22.7
4341,5.8
4342,-4.7
4345,13.4
4346,23.2
4347,6.6
4349,14.9
4353,29.6
4354,-12.4
4355,16.3
4356,7.2
4357,26.9
4359,20.6
4365,14.2
4366,36.5
4369,13.7
4370,28.1
4371,7.0
4372,3.7
4374,20.4
4376,6.4
4377,15.9
4378,25.6
4381,9.4
4382,3.1
4384,19.6
4386,21.5
4387,27.6
4389,15.9
4393,28.3
4394,11.8
4395,6.8
4396,4.7
4398,7.7
4399,6.0
4401,5.6
4402,12.9
4403,9.4
4405,12.3
4407,3.3
4408,5.6
4409,8.9
4411,5.6
4413,24.6
4415,5.8
4416,20.9
4421,-2.1
4422,11.4
4428,21.7
4432,-7.2
4434,4.4
4438,26.8
4439,16.6
4442,19.6
4443,20.9
4444,36.5
4446,10.3
4447,20.0
4453,6.6
4454,22.4
4456,-9.8
4457,10.0
4460,6.7
4463,30.2
4467,31.3
4471,17.0
4472,9.6
4475,25.9
4478,15.9
4481,20.6
4483,21.9
4489,22.6
4490,8.2
4492,18.1
4494,6.1
4498,8.0
4499,29.0
4500,3.0
4501,3.2
4504,24.6
4505,16.5
4508,4.2
4509,16.8
4510,3.0
4511,13.7
4521,-2.1
4522,19.1
4524,29.9
4528,27.7
4533,-9.8
4536,24.2
4537,19.5
4538,30.6
4539,15.0
4540,5.7
4541,27.4
4542,29.4
4544,39.1
4547,7.6
4548,16.1
4549,18.2
4550,11.1
4552,15.1
4553,4.6
4554,17.6
4555,-4.7
4556,20.8
4560,25.0
4561,13.1
4565,17.8
4567,28.8
4568,8.4
4569,23.7
4570,7.8
4572,24.7
4573,22.6
4575,22.9
4576,16.4
4577,14.3
4578,13.3
4579,7.8
4582,23.7
4584,10.5
4586,16.5
4587,21.4
4588,24.8
4589,13.1
4590,5.6
4591,28.9
4593,27.1
4594,20.9
4595,11.9
4597,13.5
4599,25.0
4600,3.0
4601,14.0
4604,18.6
4605,7.8
4607,27.3
4608,3.2
4609,6.0
4611,3.0
4613,8.1
4615,23.4
4616,21.6
4618,20.8
4619,7.7
4621,-4.7
4622,27.7
4623,11.4
4626,7.8
4627,14.5
4628,19.5
4630,10.1
4632,-12.4
4636,8.0
4637,3.4
4641,26.8
4643,7.7
4644,36.5
4651,7.6
4654,28.8
4655,5.4
4657,15.9
4659,19.0
4662,7.9
4663,3.3
4667,3.4
4668,21.0
4669,22.7
4671,14.7
4672,7.8
4673,22.4
4674,4.1
4675,14.5
4677,3.0
4678,28.7
4679,8.2
4680,28.0
4683,26.2
4685,4.5
4687,19.3
4688,15.0
4689,5.6
4691,8.2
4692,16.4
4693,11.0
4694,4.1
4696,23.1
4697,20.2
4698,4.4
4700,0.5
4701,24.3
4705,19.1
4706,9.9
4708,24.4
4709,18.1
4710,0.5
4717,8.0
4718,7.5
4719,26.4
4720,5.6
4721,-4.7
4722,29.6
4723,9.2
4724,26.9
4726,22.5
4729,14.8
4730,3.6
4732,-12.4
4733,17.8
4734,15.9
4735,21.5
4737,12.0
4740,10.9
4741,6.1
4745,36.5
4746,22.2
4750,14.7
4751,26.5
4752,16.3
4753,15.2
4756,15.9
4757,6.6
4758,10.9
4760,22.8
4762,23.0
4763,12.9
4765,3.4
4767,18.5
4768,12.1
4770,16.0
4771,8.6
4773,14.9
4775,15.5
4776,14.9
4778,7.1
4779,5.6
4782,9.2
4783,6.1
4784,30.5
4785,27.8
4786,25.0
4790,5.6
4792,6.2
4793,21.0
4795,25.2
4798,10.3
4800,-2.1
4805,23.0
4808,30.0
4811,-7.2
4812,11.4
4817,29.3
4820,23.0
4821,13.9
4822,10.7
4823,36.5
4824,25.9
4825,6.3
4826,24.0
4827,15.9
4828,16.0
4833,21.4
4834,-9.8
4835,13.9
4836,13.1
4838,29.6
4840,28.0
4841,24.1
4842,14.8
4844,22.4
4845,31.3
4846,25.1
4849,19.9
4850,8.0
4851,30.3
4852,25.9
4853,27.6
4854,25.6
4856,16.3
4857,15.9
4858,27.0
4860,5.8
4861,18.4
4863,3.6
4864,5.4
4865,26.7
4866,20.4
4867,18.8
4869,10.8
4870,7.8
4877,22.5
4878,4.2
4879,7.7
4880,-4.7
4881,18.7
4882,15.5
4886,10.5
4888,10.5
4889,24.5
4891,-12.4
4892,7.7
4895,10.5
4897,15.0
4899,12.4
4900,8.5
4902,26.1
4903,39.1
4905,19.0
4908,15.6
4909,24.3
4910,3.3
4912,13.1
4915,13.3
4916,11.2
4923,18.0
4924,23.9
4925,13.6
4927,21.0
4928,24.3
4929,14.7
4933,18.9
4936,10.9
4937,16.1
4938,5.6
4941,8.5
4942,15.1
4943,22.8
4945,4.8
4948,5.6
4950,3.3
4952,29.8
4955,19.7
4956,9.4
4958,27.5
4959,3.0
4961,20.5
4964,11.8
4966,23.8
4967,10.5
4969,0.5
4970,5.6
4973,23.3
4975,9.6
4976,24.8
4979,-4.7
4980,19.9
4982,26.4
4986,3.9
4988,24.9
4991,16.4
4992,-9.8
4994,5.2
4996,21.8
4999,4.4
5001,16.7
5002,21.1
5003,39.1
5004,14.5
5012,5.6
5013,9.2
5014,5.6
5015,17.1
5017,28.4
5020,10.3
5024,31.3
5025,8.9
5026,4.4
5027,23.4
5028,5.3
5036,15.9
5042,24.1
5043,26.6
5045,30.0
5047,15.9
5048,12.8
5052,14.6
5054,28.1
5055,26.8
5059,0.5
5064,6.7
5066,27.6
5069,0.5
5076,24.1
5080,-7.2
5083,14.3
5084,28.9
5085,28.2
5086,24.9
5087,13.3
5088,11.3
5089,22.4
5091,-12.4
5094,17.5
5095,25.9
5097,23.9
5100,19.0
5103,36.5
5107,29.3
5108,7.2
5109,16.3
5111,22.5
5114,15.9
5116,19.2
5118,6.1
5119,24.8
5120,11.6
5122,4.1
5123,15.7
5127,15.9
5128,26.6
5129,18.7
5131,3.6
5132,30.3
5137,13.2
5138,5.6
5141,24.1
5144,15.0
5145,12.4
5148,5.6
5150,4.0
5153,22.8
5156,15.4
5157,28.6
5158,-2.1
5160,19.6
5170,-7.2
5175,9.9
5176,3.8
5177,16.5
5181,39.1
5182,15.3
5188,8.9
5193,-7.2
5196,25.9
5198,16.2
5201,25.2
5202,28.3
5203,18.3
5204,28.8
5206,6.8
5209,23.6
5212,14.8
5214,27.9
5215,16.3
5216,15.9
5226,19.1
5227,8.2
5228,10.9
5230,5.3
5235,3.5
5237,3.0
5239,17.3
5240,17.2
5242,17.2
5243,12.2
5244,17.1
5246,12.2
5247,19.7
5248,3.0
5250,26.1
5254,13.8
5256,24.0
5258,19.0
5259,-4.7
5260,8.7
5261,22.0
5263,7.7
5264,17.4
5266,20.3
5269,26.7
5270,-9.8
5271,24.2
5272,30.6
5274,3.7
5275,26.6
5276,25.4
5278,20.9
5281,39.1
5283,26.7
5284,26.6
5286,20.8
5288,19.0
5290,6.9
5291,6.3
5293,-2.1
5302,15.8
5303,10.3
5304,28.8
5305,27.0
5308,14.8
5309,22.6
5310,5.2
5313,27.2
5315,13.3
5323,22.1
5324,15.4
5325,14.4
5326,8.8
5327,5.6
5328,26.5
5330,24.4
5332,14.3
5334,7.6
5336,29.1
5338,3.0
5339,21.9
5342,27.6
5343,16.3
5344,29.4
5348,0.5
5349,19.2
5350,8.0
5351,26.4
5356,26.5
5357,5.2
5358,-4.7
5359,30.9
5362,25.9
5368,29.1
5369,-12.4
5370,16.7
5371,18.7
5373,14.7
5374,12.0
5375,27.7
5376,8.7
5377,25.5
5378,16.0
5381,15.8
5382,39.1
5383,28.6
5389,3.2
5390,14.8
5393,26.3
5394,15.9
5397,20.1
5400,7.8
5403,19.4
5404,7.4
5405,21.0
5407,8.8
5408,22.5
5412,18.0
5415,29.7
5416,5.6
5417,9.6
5419,27.8
5420,21.9
5421,9.6
5424,12.2
5425,22.2
5426,20.9
5427,5.6
5429,22.4
5434,6.2
5437,0.5
5438,13.0
5440,18.8
5441,30.4
5442,15.6
5444,30.8
5445,19.8
5446,4.8
5447,0.5
5449,12.5
5454,18.1
5456,8.3
5458,-7.2
5463,13.3
5468,30.9
5469,17.9
5470,-12.4
5473,29.8
5475,10.6
5480,18.7
5482,36.5
5483,17.4
5484,24.7
5488,21.4
5489,9.9
5490,4.5
5493,15.9
5496,7.1
5498,27.4
5501,22.0
5504,23.7
5505,18.5
5507,16.0
5508,18.1
5509,14.6
5511,17.1
5514,29.0
5515,13.8
5516,13.6
5517,5.6
5520,20.9
5522,21.6
5523,22.0
5524,12.6
5525,21.1
5526,19.2
5527,5.6
5532,24.2
5535,28.3
5536,4.5
5537,-2.1
5539,13.6
5540,26.8
5541,27.7
5542,19.3
5546,23.2
5547,7.0
5548,26.8
5549,-7.2
5551,17.3
5552,12.2
5555,8.6
5556,15.6
5558,4.3
5559,16.3
5560,36.5
5563,29.2
5564,30.4
5565,14.5
5566,11.4
5567,15.5
5570,4.3
5571,-7.2
5573,3.9
5575,20.6
5579,3.9
5581,20.9
5582,27.3
5583,31.3
5586,27.1
5588,15.7
5592,14.3
5594,17.8
5595,18.5
5597,19.8
5598,14.6
5599,7.9
5602,27.4
5606,10.8
5609,11.3
5613,11.4
5614,17.7
5616,24.1
5617,-4.7
5619,3.8
5621,26.8
5622,15.8
5624,17.5
5627,21.5
5628,-9.8
5631,30.0
5632,29.6
5633,8.1
5637,21.1
5638,20.7
5639,5.5
5640,36.5
5641,14.7
5643,3.1
5644,29.2
5646,22.2
5647,23.1
5648,27.8
5649,13.8
5652,0.5
5658,6.1
5661,25.4
5662,33.9
5663,14.4
5664,6.7
5665,18.6
5667,17.9
5669,26.5
5671,9.7
5673,18.5
5675,6.4
5676,4.6
5679,24.2
5680,7.9
5683,28.8
5685,15.9
5687,8.4
5688,28.2
5689,10.4
5690,10.5
5692,12.1
5693,19.7
5694,20.6
5696,0.5
5699,8.1
5700,10.1
5701,31.0
5702,22.1
5703,27.5
5705,28.2
5706,0.5
5707,5.3
5709,3.3
5712,23.9
5714,25.7
5715,29.1
5717,7.0
5718,-4.7
5719,7.5
5720,27.6
5721,9.0
5723,19.7
5724,19.4
5729,-12.4
5732,29.3
5733,7.4
5734,9.2
5736,13.2
5737,3.3
5738,18.4
5741,36.5
5744,10.5
5745,15.6
5748,26.0
5751,29.0
5752,15.9
5753,4.6
5754,20.1
5755,21.2
5757,15.6
5759,6.7
5761,24.1
5762,9.8
5764,18.5
5772,11.9
5773,26.6
5774,28.0
5775,5.6
5777,11.6
5779,12.9
5780,9.2
5781,24.4
5783,10.2
5784,24.1
5786,3.0
5788,22.6
5789,25.8
5792,25.1
5793,24.8
5794,10.8
5796,0.5
5799,3.5
5801,9.8
5803,14.2
5807,0.5
5808,22.6
5809,26.5
5813,28.2
5815,18.3
5817,-4.7
5818,6.3
5819,27.5
5821,19.0
5823,30.9
5826,10.0
5827,13.3
5828,-12.4
5829,29.3
5831,14.2
5833,7.3
5835,8.5
5838,6.6
5840,36.5
5843,15.0
5845,13.7
5847,25.6
5851,19.9
5852,20.5
5853,15.9
5856,17.8
5857,10.9
5859,5.1
5861,13.4
5863,11.7
5864,18.5
5865,25.9
5867,30.1
5868,26.9
5870,21.7
5874,7.9
5875,3.0
5878,24.0
5879,29.6
5884,8.2
5885,3.0
5886,17.7
5888,8.2
5889,29.9
5890,18.8
5892,6.6
5896,-2.1
5898,13.7
5899,14.1
5902,30.1
5903,29.6
5904,18.9
5905,14.4
5906,8.3
5907,-9.8
5911,12.7
5913,20.1
5915,19.5
5916,27.9
5918,19.8
5919,39.1
5920,26.0
5921,19.5
5923,23.6
5927,25.2
5931,-4.7
5932,23.6
5934,9.9
5935,12.0
5937,18.5
5938,16.4
5942,28.8
5943,30.2
5945,18.6
5948,16.0
5950,16.9
5953,15.9
5955,20.1
5957,13.4
5959,24.9
5964,8.2
5965,3.3
5966,6.4
5967,10.1
5968,7.8
5969,17.7
5970,27.3
5975,0.5
5978,10.0
5979,20.0
5983,9.9
5986,3.0
5990,12.2
5991,19.9
5996,-4.7
5998,23.9
5999,30.3
6000,19.8
6003,7.3
6007,-9.8
6009,6.5
6010,3.3
6011,3.1
6012,4.9
6013,11.3
6014,21.3
6016,21.4
6019,39.1
6020,16.1
6024,14.2
6027,26.5
6028,23.3
6029,29.4
6030,3.0
6033,29.8
6035,11.5
6036,21.3
6038,9.4
6040,36.5
6042,3.9
6045,11.0
6046,29.2
6049,5.0
6051,11.4
6052,15.9
6055,3.5
6056,17.5
6058,19.1
6059,12.0
6060,28.2
6061,26.6
6062,16.2
6064,15.9
6065,3.9
6066,20.2
6067,15.2
6068,12.2
6069,21.8
6073,11.3
6075,0.5
6082,23.8
6084,21.7
6085,3.0
6087,22.5
6088,11.3
6090,3.3
6093,20.4
6095,-4.7
6096,22.9
6097,7.2
6098,17.5
6100,9.5
6106,26.3
6107,-12.4
6108,3.9
6109,29.1
6111,30.8
6112,15.0
6114,29.4
6116,5.9
6117,29.4
6118,18.6
6120,36.5
6121,20.4
6122,6.5
6124,29.3
6125,29.3
6126,26.2
6129,18.3
6130,30.2
6131,15.9
6132,25.9
6133,21.2
6134,27.0
6135,14.3
6136,6.7
6137,3.1
6139,16.3
6141,13.2
6142,18.5
6145,20.6
6147,3.1
6149,20.2
6152,14.5
6153,29.2
6154,5.6
6158,15.1
6159,12.3
6162,16.4
6163,24.2
6164,5.6
6169,21.2
6172,23.5
6174,-2.1
6175,30.0
6179,11.1
6180,26.7
6183,11.7
6184,25.3
6186,11.6
6187,-7.2
6189,10.2
6190,22.9
6194,11.9
6195,30.0
6197,21.4
6198,39.1
6199,16.5
6208,20.3
6209,-9.8
6210,26.8
6214,5.7
6215,4.5
6216,16.7
6220,28.8
6221,8.5
6222,7.7
6224,16.9
6231,30.2
6232,15.9
6235,4.7
6236,14.7
6238,24.2
6240,24.3
6242,8.0
6243,10.8
6245,4.3
6246,22.5
6247,26.3
6252,23.8
6255,-2.1
6256,19.3
6258,23.2
6261,19.5
6264,17.4
6265,8.4
6266,-12.4
6268,15.9
6269,8.3
6270,23.5
6275,25.7
6278,26.8
6279,39.1
6282,11.7
6285,26.7
6286,11.0
6289,20.1
6290,13.3
6291,24.8
6292,16.8
6296,3.7
6297,24.0
6298,18.0
6301,21.0
6302,27.2
6307,24.7
6312,8.2
6317,11.8
6322,4.8
6324,8.2
6325,30.1
6326,3.1
6328,26.4
6329,14.6
6330,5.1
6331,24.2
6332,5.0
6333,16.2
6334,3.0
6337,4.0
6339,28.7
6344,3.0
6352,18.6
6353,24.9
6354,-4.7
6355,13.0
6357,16.5
6358,9.7
6359,21.4
6360,27.2
6361,19.6
6362,5.2
6363,12.8
6366,-12.4
6367,8.4
6369,10.2
6378,39.1
6380,19.9
6382,5.1
6383,25.3
6384,17.2
6389,12.6
6390,15.9
6391,18.2
6393,5.2
6399,23.6
6401,5.7
6402,18.5
6403,28.1
6404,15.7
6410,10.6
6411,25.4
6413,5.6
6415,14.0
6421,13.2
6422,19.9
6423,3.0
6424,6.3
6426,14.2
6428,21.1
6430,26.0
6431,3.1
6433,-2.1
6434,11.0
6437,19.5
6438,28.0
6440,25.4
6441,23.1
6443,11.9
6444,11.7
6445,-7.2
6446,18.1
6447,30.6
6448,30.8
6451,10.0
6455,28.8
6456,22.9
6457,36.5
6458,7.2
6459,5.3
6461,18.1
6463,22.1
6464,19.5
6466,14.0
6467,7.5
6468,-12.4
6469,29.3
6470,23.5
6471,9.7
6475,13.4
6476,26.0
6480,26.2
6485,18.5
6491,22.2
6492,10.8
6494,10.8
6499,30.2
6500,23.8
6501,21.5
6502,18.0
6503,3.0
6505,3.3
6506,14.0
6508,7.4
6509,22.5
6510,5.5
6511,28.2
6512,10.9
6513,15.2
6514,-2.1
6515,19.8
6517,27.3
6518,23.2
6523,12.6
6524,14.7
6525,-9.8
6526,8.6
6527,29.1
6528,19.9
6529,16.1
6534,10.4
6535,3.6
6536,28.4
6537,39.1
6538,28.2
6543,24.3
6548,-2.1
6549,26.5
6550,16.6
6552,17.2
6553,30.0
6555,18.6
6556,30.8
6557,4.2
6559,31.3
6560,7.7
6561,30.4
6563,23.0
6564,19.8
6565,20.2
6566,18.1
6569,23.2
6571,15.9
6574,22.4
6575,27.8
6577,10.9
6580,9.2
6581,5.6
6582,22.1
6583,8.2
6584,28.5
6585,25.7
6591,13.6
6593,3.0
6594,5.7
6596,18.0
6597,18.5
6598,18.7
6599,12.6
6601,25.4
6603,3.0
6604,9.7
6605,21.4
6608,6.1
6610,21.4
6614,-2.1
6616,3.9
6618,30.8
6619,25.4
6622,21.8
6624,7.5
6625,-12.4
6626,3.5
6627,9.3
6630,28.3
6631,22.0
6632,16.3
6633,29.7
6635,13.2
6636,10.8
6637,36.5
6638,16.4
6639,22.6
6642,25.1
6643,27.2
6644,22.0
6648,22.0
6649,15.9
6650,6.9
6656,20.9
6657,8.5
6658,15.4
6659,4.8
6660,13.9
6661,21.0
6662,5.1
6667,20.3
6669,12.5
6670,9.8
6671,10.6
6672,8.2
6673,27.5
6674,16.6
6675,13.8
6679,14.4
6682,5.6
6683,27.4
6689,8.0
6692,0.5
6694,12.1
6696,24.3
6699,13.5
6701,3.1
6703,0.5
6706,9.5
6707,3.4
6708,24.0
6709,5.1
6712,18.0
6713,3.5
6714,-4.7
6715,13.5
6716,25.8
6717,28.4
6719,3.2
6721,28.4
6722,17.5
6725,-15.0
6726,4.4
6727,29.0
6728,4.5
6729,9.6
6730,14.1
6731,9.7
6732,26.2
6735,13.4
6736,6.6
6737,39.1
6738,17.9
6740,20.9
6742,21.1
6744,15.0
6746,26.4
6747,20.5
6748,19.5
6749,15.9
6751,3.3
6753,9.1
6757,4.2
6760,18.5
6762,6.3
6763,7.6
6768,25.6
6770,9.6
6771,5.6
6773,3.8
6777,13.2
6780,3.7
6782,5.6
6784,10.3
6786,7.4
6791,8.6
6793,-2.1
6795,29.4
6797,24.2
6801,18.9
6803,22.5
6804,-7.2
6805,13.3
6806,27.0
6807,19.1
6812,26.1
6815,39.1
6819,30.1
6820,4.2
6821,20.5
6823,17.9
6824,4.2
6825,27.2
6827,-12.4
6835,16.0
6836,28.7
6837,29.5
6839,23.6
6841,29.2
6844,21.5
6847,10.2
6849,10.7
6850,20.6
6851,8.2
6852,29.7
6855,4.2
6859,11.0
6861,10.8
6862,18.6
6864,19.9
6867,22.4
6868,28.9
6871,9.3
6872,5.5
6873,-2.1
6874,18.6
6876,20.7
6878,6.4
6881,18.3
6883,13.9
6884,-12.4
6891,20.6
6893,17.8
6894,10.9
6895,26.5
6896,39.1
6897,10.9
6898,12.2
6903,30.4
6904,7.4
6907,15.9
6914,7.7
6915,25.2
6917,13.4
6919,6.5
6920,21.0
6921,20.3
6924,4.5
6925,22.6
6926,13.6
6930,9.6
6931,8.2
6934,25.7
6935,5.9
6936,14.8
6940,6.9
6941,8.2
6942,18.2
6946,3.9
6949,3.3
6950,15.6
6951,0.5
6952,20.9
6953,24.2
6956,28.3
6962,3.0
6964,14.4
6966,6.7
6968,12.9
6969,30.8
6970,13.2
6972,-4.7
6973,13.2
6975,5.0
6977,29.7
6978,22.1
6979,4.9
6980,9.5
6984,-9.8
6986,23.3
6988,29.6
6989,14.8
6990,25.7
6991,11.8
6992,4.5
6993,17.7
6994,19.0
6995,39.1
6997,13.5
6998,8.0
6999,11.5
7004,8.9
7007,3.0
7008,19.5
7009,11.6
7010,18.9
7011,4.6
7012,13.5
7013,10.4
7016,23.9
7017,33.9
7019,9.0
7021,22.0
7022,12.0
7024,29.3
7025,28.7
7026,19.3
7028,15.9
7029,11.9
7031,15.9
7032,19.0
7034,23.6
7035,24.2
7036,29.1
7040,10.8
7043,20.8
7044,17.9
7046,15.2
7047,23.8
7048,11.4
7049,23.1
7050,19.3
7051,15.0
7052,0.5
7054,13.9
7058,6.4
7062,0.5
7065,9.6
7068,27.7
7070,23.0
7071,16.9
7072,-7.2
7076,20.6
7081,18.7
7083,14.1
7084,-12.4
7086,29.7
7087,13.5
7090,16.1
7091,24.6
7094,30.2
7096,39.1
7097,30.8
7101,22.4
7103,26.7
7107,15.9
7109,25.4
7111,5.5
7113,10.4
7114,27.0
7115,25.6
7117,5.8
7118,8.2
7119,18.5
7121,3.7
7125,13.1
7127,16.7
7129,9.1
7131,5.6
7132,26.8
7141,3.0
7142,7.0
7144,22.8
7145,22.6
7147,9.0
7148,22.1
7149,8.9
7150,31.0
7151,-2.1
7156,14.3
7159,10.3
7160,8.2
7162,-9.8
7165,18.7
7167,6.7
7169,9.7
7174,39.1
7175,7.6
7177,14.1
7178,25.5
7184,30.0
7185,13.5
7186,-7.2
7187,27.1
7192,21.3
7194,10.2
7195,15.3
7197,31.3
7202,28.7
7206,20.4
7207,22.9
7208,15.9
7209,9.3
7210,18.0
7212,12.5
7213,6.9
7214,6.8
7215,22.2
7216,3.6
7218,5.6
7219,22.3
7220,8.2
7222,3.0
7224,14.9
7225,8.3
7226,24.3
7227,7.9
7228,10.8
7229,6.9
7230,3.0
7231,29.9
7232,16.9
7235,5.0
7240,3.0
7242,19.5
7243,7.2
7244,20.0
7247,25.4
7248,16.5
7249,26.0
7251,-2.1
7252,27.1
7253,12.2
7254,10.5
7255,12.6
7256,28.1
7257,4.6
7262,28.9
7263,-9.8
7264,12.1
7269,18.9
7270,20.1
7273,4.9
7274,39.1
7280,18.4
7281,9.2
7285,-2.1
7286,3.8
7287,23.1
7288,14.0
7290,11.0
7296,9.9
7297,28.8
7298,21.9
7299,8.2
7300,24.2
7301,30.8
7303,23.3
7306,7.2
7307,6.6
7308,13.3
7309,15.6
7310,16.1
7312,8.7
7316,5.1
7318,27.8
7320,5.6
7323,17.2
7324,29.9
7326,29.7
7330,3.0
7332,14.3
7335,11.4
7339,16.4
7340,28.9
7341,0.5
7342,15.4
7346,8.8
7347,13.1
7350,9.7
7351,-4.7
7353,25.3
7354,12.4
7356,11.8
7360,20.5
7362,-12.4
7364,25.3
7372,6.8
7374,36.5
7375,11.1
7376,23.4
7378,4.1
7379,16.2
7382,22.8
7383,23.4
7384,6.7
7386,16.9
7387,15.9
7389,3.5
7390,21.1
7393,15.2
7394,24.9
7395,13.3
7396,7.7
7398,21.0
7400,15.7
7402,6.9
7403,18.9
7405,3.1
7407,28.9
7408,26.3
7409,8.2
7411,3.4
7413,4.1
7416,22.8
7417,8.3
7418,17.2
7419,5.6
7424,30.5
7425,20.8
7426,25.2
7427,29.4
7429,27.7
7430,3.0
7432,25.3
7435,29.5
7436,23.4
7438,10.9
7440,3.0
7445,15.5
7446,11.8
7447,16.6
7451,-4.7
7453,19.4
7460,5.9
7461,28.9
7462,-15.0
7468,30.5
7471,22.6
7472,19.0
7473,16.6
7474,19.1
7475,36.5
7477,18.2
7479,10.8
7480,30.9
7482,25.1
7486,15.9
7489,10.2
7490,28.6
7492,17.2
7494,4.0
7495,23.7
7496,27.9
7497,18.5
7498,25.8
7499,3.4
7500,10.9
7501,22.7
7503,21.5
7507,7.0
7508,5.6
7510,14.7
7511,27.4
7514,11.3
7520,3.0
7526,6.6
7530,-2.1
7531,23.9
7532,30.3
7534,10.2
7539,13.7
7541,-9.8
7542,6.7
7543,7.4
7544,18.3
7546,22.7
7547,27.7
7550,25.6
7553,36.5
7556,5.1
7561,27.3
7564,-9.8
7565,5.9
7568,20.2
7569,18.7
7575,28.8
7576,12.5
7579,10.0
7585,3.1
7587,15.9
7588,5.1
7589,22.2
7591,15.2
7592,22.6
7596,28.7
7597,7.6
7599,8.2
7605,28.5
7606,25.9
7609,3.0
7610,30.2
7612,22.7
7614,11.5
7619,3.0
7621,16.9
7622,7.8
7623,27.9
7625,20.8
7626,12.5
7627,23.0
7629,-2.1
7631,23.9
7635,22.5
7637,4.8
7639,17.4
7641,-9.8
7643,17.0
7644,7.0
7648,30.0
7652,8.7
7653,39.1
7656,17.7
7657,18.3
7660,16.5
7662,12.2
7663,18.3
7664,-4.7
7665,26.7
7666,4.9
7667,17.6
7670,13.8
7671,5.2
7672,23.5
7673,22.5
7675,28.8
7677,10.2
7678,21.0
7679,14.2
7681,16.1
7683,30.4
7686,19.8
7687,13.3
7689,30.2
7690,30.1
7691,14.0
7694,24.1
7696,12.1
7698,10.8
7700,15.0
7701,15.4
7703,10.5
7706,24.7
7707,13.8
7709,-4.7
7711,27.7
7712,18.2
7716,30.2
7717,27.0
7718,27.0
7719,15.5
7720,8.6
7721,-12.4
7722,25.5
7723,4.4
7725,18.2
7728,19.1
7729,6.9
7730,5.3
7731,14.2
7734,36.5
7735,3.2
7737,14.7
7738,13.0
7741,11.9
7742,15.6
7743,17.2
7745,15.9
7747,29.6
7748,12.3
7752,21.6
7754,17.6
7756,18.5
7757,14.2
7758,12.2
7759,24.2
7764,27.9
7766,12.9
7767,30.8
7768,5.6
7769,7.8
7773,16.2
7774,10.7
7775,3.2
7776,13.8
7777,15.5
7779,5.6
7780,17.6
7781,25.7
7782,25.6
7783,27.0
7786,11.2
7788,4.6
7789,-2.1
7790,5.0
7792,13.7
7794,10.1
7797,6.0
7798,7.9
7799,10.2
7800,-7.2
7804,11.5
7807,4.9
7811,17.3
7812,39.1
7813,20.1
7816,29.1
7817,3.1
7819,25.4
7820,26.3
7822,8.6
7823,-12.4
7825,14.4
7826,18.0
7827,14.9
7829,17.4
7832,9.5
7835,23.6
7837,11.9
7838,16.2
7841,4.2
7842,4.8
7844,3.6
7846,9.9
7847,10.8
7849,8.4
7851,27.7
7852,11.4
7855,29.2
7856,7.3
7859,5.6
7860,8.9
7861,21.0
7862,4.7
7866,4.3
7868,22.4
7869,-2.1
7871,23.5
7872,18.1
7875,23.6
7876,9.3
7877,30.5
7878,24.8
7879,10.8
7880,-9.8
7882,4.9
7883,10.5
7885,19.2
7886,19.3
7887,15.1
7889,4.9
7890,20.0
7891,39.1
7892,19.7
7893,27.3
7897,28.7
7899,28.1
7903,-2.1
7907,27.6
7909,6.8
7911,10.6
7913,30.7
7915,28.8
7916,18.5
7922,6.1
7925,13.2
7926,15.9
7928,20.1
7930,17.7
7933,11.4
7934,28.6
7935,16.0
7937,12.9
7938,8.2
7939,24.6
7944,24.1
7946,16.8
7948,0.5
7949,30.7
7950,30.3
7952,3.4
7956,12.0
7957,20.9
7958,0.5
7959,29.7
7961,19.0
7965,22.0
7966,27.9
7968,-2.1
7969,19.4
7975,20.6
7980,18.4
7981,-12.4
7982,6.9
7983,30.5
7986,3.0
7988,23.1
7990,10.0
7992,7.1
7993,39.1
7995,27.4
7996,27.0
7997,25.4
7998,30.1
7999,12.9
8000,17.9
8001,30.3
8002,6.9
8004,15.9
8005,17.6
8007,20.1
8009,27.4
8012,16.1
8014,26.6
8015,18.5
8017,7.3
8018,9.4
8020,18.8
8025,15.3
8026,15.9
8027,5.6
8031,11.0
8033,15.2
8034,13.2
8035,13.2
8036,29.6
8037,5.6
8038,21.4
8041,4.9
8044,28.2
8045,23.7
8046,30.8
8048,0.5
8055,22.2
8056,23.2
8058,0.5
8059,8.6
8063,17.0
8069,-7.2
8070,24.1
8071,6.6
8072,20.0
8073,25.0
8074,17.6
8076,14.1
8078,17.4
8079,29.3
8080,-12.4
8081,6.0
8088,14.8
8092,36.5
8094,9.9
8095,24.5
8096,7.7
8098,28.0
8101,3.9
8102,21.0
8103,15.9
8105,23.2
8106,13.5
8108,20.4
8111,10.8
8114,15.9
8115,26.5
8116,18.5
8117,11.2
8121,17.5
8123,5.8
8125,30.5
8127,5.6
8128,8.4
8129,3.1
8130,14.3
8131,26.6
8132,9.0
8133,30.1
8134,28.6
8136,5.4
8137,5.6
8139,5.6
8140,25.7
8143,28.9
8145,25.4
8146,5.5
8147,-2.1
8148,18.1
8149,7.2
8151,24.8
8155,27.8
8159,-7.2
8163,26.1
8164,26.0
8165,18.8
8166,14.6
8167,18.4
8170,36.5
8174,26.4
8175,29.1
8176,29.0
8177,9.6
8178,15.9
8179,7.0
8181,21.3
8182,-9.8
8183,6.3
8184,20.5
8188,29.5
8189,3.8
8191,7.2
8194,28.8
8195,7.8
8198,16.2
8199,26.2
8201,4.6
8205,15.9
8210,22.8
8211,25.3
8214,30.4
8216,10.8
8218,11.9
8219,10.6
8220,25.4
8221,18.2
8223,20.9
8224,4.6
8227,-2.1
8229,27.9
8234,10.9
8235,16.0
8236,15.5
8237,12.0
8239,-12.4
8240,10.3
8246,20.6
8250,15.5
8252,39.1
8253,16.9
8255,11.8
8256,19.6
8257,5.2
8258,25.9
8261,27.2
8262,18.1
8263,13.3
8267,22.2
8269,26.6
8271,24.0
8273,16.0
8274,21.0
8275,4.9
8278,19.3
8279,12.0
8284,19.9
8286,8.2
8287,18.6
8293,11.5
8295,17.3
8296,8.2
8300,20.0
8301,22.9
8305,13.9
8306,0.5
8307,14.3
8308,18.4
8309,17.2
8312,18.4
8314,15.4
8316,8.8
8317,0.5
8319,3.6
8320,7.4
8324,3.5
8325,16.4
8328,-4.7
8329,5.2
8331,9.7
8333,14.2
8335,6.0
8336,6.2
8339,-12.4
8341,20.7
8343,21.7
8344,3.8
8346,26.8
8347,23.7
8351,39.1
8352,18.3
8354,25.6
8355,5.8
8356,29.0
8357,21.1
8359,18.1
8361,21.0
8363,15.9
8364,26.7
8366,25.0
8368,5.8
8371,24.5
8373,25.8
8374,18.5
8375,3.7
8376,26.2
8379,3.2
8380,14.3
8383,23.0
8385,26.8
8386,8.2
8388,19.7
8390,27.4
8394,4.3
8395,19.4
8396,5.6
8398,9.1
8400,24.8
8401,19.5
8402,7.0
8403,18.5
8407,-2.1
8408,28.0
8409,9.3
8412,28.3
8415,17.3
8418,-7.2
8420,29.0
8423,15.2
8427,11.5
8429,36.5
8430,28.3
8431,28.8
8433,9.8
8434,11.9
8435,14.8
8436,12.2
8439,17.3
8440,-12.4
8453,14.6
8454,23.6
8456,17.5
8459,23.4
8460,9.3
8461,30.3
8462,12.5
8463,22.3
8465,10.8
8466,3.4
8467,16.6
8468,9.6
8469,5.8
8472,7.8
8474,25.6
8475,28.2
8476,3.0
8479,9.1
8480,12.0
8485,12.5
8486,-4.7
8487,4.2
8490,26.6
8491,11.9
8492,21.9
8493,3.9
8494,6.6
8496,5.6
8497,16.4
8498,-9.8
8499,19.9
8500,27.6
8501,9.2
8502,10.7
8504,26.0
8505,10.4
8507,11.7
8509,39.1
8510,30.5
8514,18.0
8515,5.9
8516,5.1
8521,-2.1
8522,4.8
8523,27.9
8524,29.6
8525,21.2
8526,22.6
8527,24.1
8532,28.8
8533,29.2
8534,30.4
8536,25.2
8537,26.8
8538,8.6
8540,18.0
8542,15.4
8544,13.3
8546,12.1
8547,24.0
8548,25.9
8550,24.7
8552,19.8
8553,23.8
8554,19.3
8555,5.6
8556,15.3
8557,27.4
8558,20.3
8561,18.1
8565,3.0
8566,27.5
8567,7.0
8568,20.9
8569,11.5
8576,3.0
8577,24.8
8579,10.5
8582,14.9
8584,11.2
8587,-4.7
8589,14.5
8590,16.2
8592,25.7
8594,3.7
8596,24.3
8598,-9.8
8599,9.5
8601,24.6
8607,23.3
8608,15.0
8609,39.1
8612,11.3
8613,3.6
8614,15.1
8618,29.3
8621,3.0
8623,20.2
8625,16.4
8628,24.2
8629,17.2
8631,33.9
8632,8.8
8633,6.3
8634,19.3
8637,17.0
8640,15.7
8641,28.7
8642,18.5
8646,19.8
8647,22.7
8648,7.1
8650,15.3
8651,5.9
8652,14.0
8653,18.7
8654,13.3
8655,23.8
8658,22.9
8660,6.8
8663,26.2
8664,12.3
8666,0.5
8668,13.3
8672,22.7
8674,11.5
8676,0.5
8678,7.6
8680,26.0
8681,9.3
8686,-7.2
8687,11.4
8688,13.5
8690,30.8
8693,13.4
8697,-12.4
8698,18.4
8701,20.6
8702,10.1
8704,9.9
8707,15.1
8708,13.9
8710,36.5
8712,29.5
8713,28.5
8717,11.4
8721,25.3
8722,15.9
8724,26.7
8725,22.9
8727,13.9
8729,23.4
8730,12.7
8731,20.7
8733,18.5
8735,13.0
8736,10.9
8741,5.3
8742,20.6
8743,10.5
8744,5.6
8746,29.1
8752,29.0
8755,5.6
8756,6.2
8757,4.8
8758,3.1
8759,3.4
8761,7.5
8765,0.5
8766,7.6
8769,17.4
8775,-2.1
8777,5.6
8778,18.8
8783,5.0
8785,26.4
8787,26.2
8788,11.0
8790,31.0
8795,9.4
8796,24.4
8797,26.5
8799,-20.1
8800,21.7
8801,13.8
8802,27.9
8805,22.7
8808,10.1
8809,18.7
8811,28.8
8812,22.4
8814,25.7
8815,11.1
8818,23.6
8819,6.6
8820,25.7
8821,27.1
8822,15.9
8825,18.0
8826,11.1
8828,20.8
8834,10.8
8836,9.8
8842,8.6
8844,29.2
8846,-2.1
8848,25.7
8849,14.9
8852,26.9
8853,12.7
8857,-12.4
8863,29.1
8864,3.8
8866,23.3
8867,19.4
8868,22.8
8869,39.1
8873,8.2
8875,18.6
8877,8.3
8878,13.6
8881,13.3
8882,15.9
8883,19.8
8884,13.6
8886,14.6
8887,15.2
8891,5.2
8892,21.0
8894,6.9
8899,11.8
8900,14.0
8901,9.7
8903,8.2
8904,7.9
8905,29.6
8906,3.9
8909,25.2
8912,26.5
8914,5.6
8915,6.7
8917,22.6
8919,9.2
8920,20.2
8922,18.2
8925,0.5
8926,5.0
8927,30.7
8929,23.3
8931,30.2
8933,18.5
8935,0.5
8936,28.0
8940,16.7
8942,20.3
8943,3.5
8945,-4.7
8947,16.3
8949,15.7
8951,5.0
8952,7.2
8953,11.5
8954,25.8
8955,6.4
8956,-12.4
8960,11.2
8961,20.3
8964,8.9
8965,24.8
8966,12.8
8967,15.8
8969,39.1
8973,26.8
8974,28.4
8976,15.2
8981,15.9
8982,11.6
8983,27.3
8985,13.6
8987,4.5
8988,18.4
8989,9.9
8990,24.0
8991,13.6
8992,21.0
8994,4.9
8996,19.4
8997,24.0
9001,23.6
9004,5.6
9005,21.0
9006,28.0
9014,5.6
9016,20.7
9017,13.0
9018,24.2
9020,20.9
9023,16.6
9024,-2.1
9027,15.3
9031,26.8
9034,10.4
9035,-9.8
9038,5.6
9039,20.0
9048,39.1
9053,3.7
9054,29.0
9055,30.1
9059,-12.4
9065,28.7
9066,18.3
9068,3.1
9069,8.0
9071,23.6
9074,25.4
9079,12.6
9080,23.4
9081,30.4
9082,10.8
9085,26.3
9086,24.9
9090,10.6
9093,11.1
9094,3.0
9095,22.1
9099,27.5
9100,14.2
9102,6.9
9103,17.9
9104,-2.1
9106,18.0
9107,19.0
9108,11.4
9110,24.1
9112,29.8
9114,4.9
9115,28.9
9116,-9.8
9117,10.7
9119,23.5
9120,22.5
9121,13.5
9122,16.5
9127,39.1
9128,19.2
9132,8.5
9133,13.0
9136,6.2
9137,22.5
9138,19.5
9139,-2.1
9141,17.7
9142,16.1
9144,26.1
9145,9.0
9148,6.8
9149,22.3
9150,26.2
9151,11.1
9153,19.3
9155,11.0
9161,15.9
9166,15.3
9167,21.2
9171,14.9
9172,5.6
9173,17.4
9174,4.4
9177,17.8
9178,13.5
9181,4.4
9182,5.8
9183,22.5
9184,0.5
9185,16.5
9186,9.8
9188,11.7
9189,19.3
9190,12.1
9194,3.0
9197,29.3
9198,10.0
9199,15.1
9203,18.0
9204,-4.7
9207,7.8
9214,5.9
9215,25.4
9216,-9.8
9218,16.6
9219,18.4
9220,18.4
9221,5.7
9222,20.2
9223,14.4
9224,17.7
9225,14.9
9226,6.6
9227,39.1
9234,24.3
9238,3.0
9240,26.5
9244,14.4
9245,18.3
9247,26.5
9249,31.3
9254,7.0
9255,15.0
9257,19.2
9258,8.5
9261,15.9
9264,28.9
9265,23.2
9266,13.4
9268,10.4
9269,22.8
9272,13.3
9278,8.5
9279,14.3
9280,4.5
9281,8.5
9283,0.5
9284,8.2
9285,17.1
9287,27.5
9288,30.4
9289,22.4
9292,12.4
9293,0.5
9294,22.5
9295,21.9
9297,28.6
9298,6.9
9301,11.1
9304,-4.7
9305,5.7
9309,11.1
9312,7.3
9313,14.3
9315,16.5
9316,-12.4
9318,5.9
9319,5.1
9325,12.0
9328,36.5
9330,19.5
9331,7.0
9332,5.7
9333,27.1
9335,14.9
9336,10.0
9337,26.8
9338,17.5
9339,15.9
9340,6.6
9345,26.9
9351,15.9
9352,10.8
9353,3.9
9354,11.9
9355,27.3
9357,19.4
9360,8.2
9362,5.6
9365,7.9
9366,13.4
9367,6.9
9369,3.8
9372,5.6
9373,29.9
9374,23.7
9376,24.2
9378,26.8
9379,6.2
9380,8.8
9382,18.0
9383,-2.1
9388,8.9
9389,19.1
9390,8.4
9395,-7.2
9396,21.0
9398,13.2
9400,17.5
9401,29.7
9403,6.3
9406,39.1
9409,9.0
9411,9.8
9412,19.7
9413,12.4
9414,27.1
9416,22.0
9417,-7.2
9421,12.3
9422,9.1
9425,8.2
9428,31.3
9429,14.2
9431,24.6
9432,11.3
9433,15.4
9435,25.2
9436,7.9
9437,19.3
9438,15.0
9440,15.9
9447,8.4
9449,7.9
9450,4.5
9452,8.2
9455,25.7
9456,29.6
9457,9.9
9459,24.0
9460,20.8
9462,3.0
9463,16.3
9466,28.3
9467,26.0
9469,10.7
9473,3.0
9474,19.0
9476,20.8
9482,13.1
9483,-2.1
9485,20.4
9487,26.3
9491,13.0
9492,26.4
9494,-12.4
9496,5.6
9497,22.3
9500,30.9
9501,30.5
9503,14.3
9505,25.8
9506,39.1
9508,18.8
9509,4.9
9510,16.7
9511,28.1
9512,29.9
9514,13.4
9516,9.9
9517,20.9
9519,13.3
9520,4.7
9529,28.7
9530,21.0
9531,14.7
9532,5.9
9533,16.2
9535,30.8
9538,9.1
9539,14.3
9540,19.3
9541,10.8
9543,13.4
9544,11.1
9545,15.4
9546,30.8
9550,10.6
9552,0.5
9554,24.4
9555,15.2
9557,11.9
9558,9.5
9562,8.8
9563,-4.7
9565,19.3
9566,22.3
9568,28.9
9569,6.6
9570,20.7
9574,-12.4
9576,24.4
9579,18.4
9582,12.5
9584,10.0
9585,11.1
9586,27.6
9587,36.5
9588,22.8
9589,30.7
9592,16.8
9596,19.6
9597,11.3
9598,15.9
9600,12.5
9604,5.3
9605,20.9
9609,27.2
9610,18.5
9613,22.5
9614,14.7
9615,8.5
9616,20.5
9619,29.1
9621,8.2
9624,12.1
9625,9.0
9626,21.5
9627,14.5
9628,12.2
9630,24.0
9631,5.6
9633,9.9
9634,19.2
9638,14.6
9641,5.8
9643,0.5
9647,23.5
9649,7.1
9653,-2.1
9654,18.8
9656,19.5
9657,9.6
9658,20.0
9662,27.9
9664,23.6
9668,18.3
9671,21.4
9675,-22.7
9676,14.6
9677,12.9
9680,9.3
9681,29.5
9682,5.3
9683,14.0
9685,24.9
9688,28.8
9690,21.4
9691,22.4
9695,5.5
9696,9.9
9697,16.9
9698,8.8
9699,15.9
9701,6.7
9705,4.7
9707,22.4
9711,8.2
9713,24.7
9714,24.7
9717,29.4
9719,10.7
9720,20.2
9721,5.6
9723,25.8
9724,29.8
9727,28.3
9729,3.5
9730,28.1
9732,3.0
9739,13.8
9741,10.7
9742,-4.7
9749,8.8
9750,6.7
9751,6.4
9753,-7.2
9756,11.0
9758,24.9
9764,36.5
9765,19.6
9768,11.3
9769,24.7
9775,14.1
9776,12.1
9777,-4.7
9780,10.8
9781,7.0
9782,19.2
9783,26.3
9784,7.6
9785,26.6
9786,11.3
9787,24.0
9788,28.8
9789,8.7
9790,25.8
9792,19.7
9797,15.9
9798,23.9
9799,15.9
9800,19.4
9805,25.6
9806,20.7
9810,8.2
9812,11.4
9814,9.0
9815,26.0
9816,10.3
9817,26.7
9818,5.2
9819,21.7
9820,8.1
9821,5.6
9824,14.6
9827,28.5
9831,3.0
9833,23.1
9835,18.9
9836,5.5
9837,14.5
9838,30.7
9840,3.7
9841,22.1
9842,-4.7
9843,18.4
9844,9.1
9850,9.2
9852,6.1
9853,-9.8
9861,5.9
9864,13.9
9865,39.1
9867,7.8
9868,25.0
9869,19.0
9870,6.2
9872,24.7
9874,9.9
9875,19.8
9876,-2.1
9878,23.5
9880,3.9
9882,24.1
9886,8.5
9887,28.8
9888,9.5
9890,30.2
9892,9.0
9893,28.7
9894,14.7
9895,16.5
9896,25.4
9897,29.8
9898,10.7
9899,15.9
9900,25.2
9902,10.9
9904,26.1
9908,18.3
9910,22.4
9911,8.2
9912,5.5
9913,4.7
9915,5.0
9916,15.2
9917,19.8
9918,4.1
9920,30.8
9921,0.5
9924,28.4
9926,5.6
9927,14.2
9929,30.3
9931,3.0
9933,19.2
9934,22.9
9935,21.6
9940,5.3
9941,3.7
9942,-4.7
9943,26.8
9946,21.4
9947,28.8
9949,28.0
9953,-12.4
9954,4.1
9955,17.8
9956,26.3
9958,14.7
9960,14.7
9962,6.3
9965,36.5
9966,28.6
9967,31.0
9968,23.9
9970,5.0
9973,20.4
9976,4.1
9977,15.9
9978,11.2
9979,6.4
9980,26.7
9985,8.6
9986,17.1
9987,23.8
9989,18.5
9990,12.2
9991,18.5
9993,27.9
9994,30.9
10000,5.6
10001,8.9
10003,8.5
10006,14.9
10010,22.5
10011,-2.1
10012,18.8
10013,21.8
10016,16.6
10018,29.3
10019,19.6
10021,8.8
10022,18.2
10023,36.5
10027,4.6
10031,12.1
10034,16.5
10035,26.9
10036,13.3
10038,27.7
10041,25.1
10042,6.2
10043,27.6
10045,24.9
10046,5.7
10047,22.1
10048,28.9
10049,15.9
10052,25.9
10058,30.9
10059,11.5
10060,16.0
10061,-4.7
10062,27.3
10066,7.5
10067,29.1
10068,18.6
10070,21.3
10072,11.1
10073,6.3
10074,-17.5
10077,26.5
10078,15.9
10079,20.7
10080,11.9
10081,28.4
10082,29.1
10083,5.1
10086,29.0
10087,23.6
10088,9.0
10089,15.2
10090,26.8
10091,13.3
10093,13.7
10094,27.1
10095,8.3
10099,8.2
10101,5.0
10102,18.5
10104,30.0
10105,4.1
10108,20.8
10110,11.4
10111,30.2
10112,-2.1
10114,21.4
10117,13.6
10118,24.9
10119,31.0
10122,7.7
10123,21.0
10124,36.5
10125,6.3
10126,11.0
10132,4.3
10134,22.9
10136,13.3
10137,5.3
10139,12.4
10142,12.3
10143,14.5
10145,21.6
10146,30.0
10148,13.3
10150,8.2
10152,4.9
10153,18.3
10154,25.8
10155,12.4
10156,31.0
10157,7.9
10161,-7.2
10164,21.4
10173,-20.1
10181,23.7
10182,28.0
10183,3.1
10184,20.7
10187,23.6
10188,10.9
10189,23.2
10190,4.8
10191,22.8
10192,19.3
10193,19.7
10194,20.2
10196,17.6
10197,28.6
10199,13.0
10200,3.0
10201,13.9
10202,10.9
10204,19.0
10206,29.6
10209,9.2
10210,4.6
10211,-4.7
10212,13.3
10213,19.5
10215,20.6
10216,23.5
10217,15.1
10219,12.7
10220,21.6
10223,39.1
10224,14.3
10226,13.2
10227,24.8
10231,11.3
10232,7.1
10235,13.3
10239,30.7
10241,15.6
10242,23.3
10245,15.8
10246,13.9
10247,6.7
10249,13.3
10250,21.3
10252,14.3
10257,3.7
10258,13.7
10259,3.2
10260,3.6
10261,0.5
10262,4.2
10264,11.2
10267,31.0
10268,28.8
10272,-15.0
10274,6.1
10278,9.2
10279,30.6
10280,13.6
10281,21.2
10283,29.9
10284,27.1
10285,10.3
10286,28.8
10289,25.0
10290,17.3
10291,24.8
10296,5.9
10297,3.1
10298,10.8
10299,30.1
10301,30.5
10302,14.5
10303,18.2
10308,4.7
10311,-4.7
10312,10.6
10313,30.2
10315,24.3
10318,16.6
10320,18.0
10321,3.2
10322,14.4
10323,39.1
10324,8.4
10325,23.2
10327,6.4
10330,27.4
10332,21.5
10335,6.9
10336,15.9
10340,7.0
10341,7.1
10343,7.9
10344,7.3
10347,3.4
10348,10.8
10351,10.8
10352,12.1
10353,7.4
10354,8.4
10357,31.0
10360,8.2
10362,19.5
10363,11.3
10367,3.0
10368,5.6
10370,23.3
10372,-15.0
10375,18.5
10377,15.7
10380,25.5
10382,9.4
10383,27.9
10386,28.8
10388,5.8
10389,6.2
10391,9.9
10394,21.7
10396,26.1
10397,29.5
10398,8.2
10402,11.8
10403,11.9
10405,24.8
10406,15.4
10408,7.1
10409,0.5
10413,24.5
10414,17.9
10420,6.7
10421,21.0
10422,26.1
10423,25.2
10424,15.2
10425,6.3
10427,22.6
10428,21.6
10433,-17.5
10437,29.8
10438,18.6
10442,4.1
10444,24.3
10445,17.7
10447,18.5
10448,3.8
10449,28.9
10452,3.5
10453,5.0
10454,28.1
10459,5.9
10460,-2.1
10462,11.1
10465,27.3
10472,-17.5
10473,29.4
10476,9.8
10478,5.2
10481,12.3
10485,26.2
10486,24.3
10487,25.0
10489,17.3
10490,28.4
10491,29.0
10493,10.4
10494,16.1
10496,14.5
10498,5.6
10499,15.7
10500,23.5
10503,20.6
10506,18.4
10507,7.9
10509,21.0
10510,-2.1
10511,21.9
10514,28.9
10515,9.3
10516,13.8
10519,24.2
10521,16.9
10522,39.1
10524,28.6
10526,21.0
10527,30.1
10528,21.9
10529,9.4
10530,18.6
10534,10.8
10535,24.6
10538,21.7
10543,5.7
10544,26.1
10546,20.4
10547,15.9
10551,28.3
10552,15.4
10554,29.1
10555,28.3
10557,26.0
10558,14.3
10559,-2.1
10560,19.1
10562,11.9
10563,12.3
10564,12.0
10566,12.6
10571,-17.5
10572,16.8
10574,13.4
10581,19.0
10583,22.5
10584,3.6
10586,26.2
10587,24.3
10590,8.2
10597,28.1
10598,5.6
10601,3.0
10603,14.7
10606,30.0
10608,18.9
10609,-2.1
10611,4.4
10612,11.3
10616,28.0
10617,17.6
10618,25.4
10619,15.0
10620,13.6
10621,39.1
10622,23.4
10624,13.9
10626,14.8
10628,9.7
10631,15.7
10632,10.7
10634,13.3
10635,15.4
10636,4.2
10637,14.2
10640,7.0
10641,14.6
10642,28.9
10644,14.7
10645,18.7
10646,11.4
10647,15.9
10649,28.2
10650,4.6
10654,13.0
10655,20.8
10658,17.3
10659,-4.7
10660,8.4
10661,23.2
10663,20.2
10664,7.5
10665,20.2
10666,14.1
10669,10.5
10671,15.9
10672,-20.1
10673,26.4
10675,27.1
10677,8.0
10681,25.5
10682,25.7
10684,17.9
10685,26.2
10686,21.9
10687,9.7
10688,6.9
10689,10.0
10691,9.0
10694,17.3
10697,3.0
10703,24.5
10705,10.7
10706,15.7
10707,6.5
10708,6.1
10709,12.3
10710,-2.1
10714,9.9
10722,36.5
10724,27.4
10725,19.8
10727,12.2
10728,12.5
10729,15.8
10730,26.7
10731,19.4
10732,3.8
10733,7.9
10734,15.9
10736,17.0
10738,25.7
10741,3.4
10744,10.8
10746,13.3
10747,13.3
10748,4.7
10749,30.9
10750,9.0
10751,21.4
10752,20.4
10753,12.5
10754,19.8
10755,13.0
10756,29.1
10757,26.8
10759,-2.1
10762,12.0
10766,18.1
10768,25.7
10770,17.7
10771,-22.7
10773,9.3
10774,10.8
10775,28.5
10779,6.9
10782,15.2
10784,8.1
10785,21.0
10789,27.7
10794,20.3
10797,5.5
10798,3.0
10799,7.4
10800,16.6
10802,29.6
10808,19.8
10809,-7.2
10810,26.2
10811,3.7
10812,5.4
10814,16.0
10818,29.0
10820,8.0
10821,39.1
10822,6.3
10823,22.2
10829,19.5
10830,28.2
10831,13.7
10832,8.9
10833,15.9
10835,27.0
10837,26.4
10839,14.1
10840,30.6
10841,25.9
10845,24.0
10846,30.2
10847,13.3
10848,6.4
10849,9.5
10850,7.4
10853,4.3
10854,17.9
10858,29.3
10859,5.6
10861,13.0
10864,8.2
10866,4.3
10868,5.7
10870,-15.0
10872,19.4
10873,6.0
10874,9.7
10878,9.8
10879,13.5
10880,9.3
10883,19.9
10884,26.2
10886,5.4
10887,4.7
10889,4.6
10895,3.6
10896,8.2
10901,22.8
10903,21.1
10904,15.0
10905,13.5
10907,8.2
10908,0.5
10915,12.5
10917,23.0
10919,18.5
10920,22.0
10923,22.6
10924,4.8
10926,23.7
10927,12.9
10928,19.8
10931,3.1
10932,-20.1
10933,15.6
10937,30.9
10940,25.7
10944,7.0
10945,15.9
10949,3.0
10951,25.2
10955,12.6
10957,-2.1
10959,25.5
10962,9.1
10966,23.8
10970,-17.5
10973,5.3
10974,13.8
10975,20.6
10976,16.0
10977,24.9
10978,24.5
10979,11.0
10982,13.6
10984,28.8
10991,15.4
10992,11.1
10993,9.9
10995,3.4
10996,5.6
10997,23.7
10998,20.2
10999,29.5
11000,12.9
11001,22.0
11004,22.6
11005,5.9
11006,5.2
11007,15.6
11008,0.5
11010,17.0
11015,30.1
11018,22.9
11019,23.6
11021,12.5
11022,12.6
11023,21.4
11025,21.1
11026,24.3
11028,4.9
11029,3.7
11031,-9.8
11032,19.1
11033,18.5
11037,26.0
11040,21.1
11042,16.4
11044,23.6
11046,4.5
11050,21.5
11053,25.3
11054,20.5
11057,3.0
11061,7.4
11067,9.9
11068,-4.7
11069,21.9
11070,13.9
11071,20.5
11072,22.0
11073,15.4
11074,13.8
11080,39.1
11081,26.1
11084,20.7
11085,8.7
11088,9.9
11090,7.2
11092,13.3
11093,22.2
11094,6.4
11096,13.0
11100,7.3
11101,27.3
11102,13.6
11104,20.8
11105,13.3
11107,23.2
11109,21.1
11110,13.3
11111,9.2
11116,16.9
11117,5.3
11118,0.5
11122,26.7
11124,20.0
11127,8.4
11129,-15.0
11130,4.1
11131,29.3
11133,9.9
11137,26.2
11138,24.6
11141,9.9
11142,24.1
11143,31.3
11145,18.8
11146,22.5
11147,27.5
11148,22.7
11151,5.0
11155,8.2
11158,7.0
11161,15.2
11162,19.8
11163,20.5
11164,26.8
11166,0.5
11167,13.6
11171,8.8
11175,30.2
11177,24.1
11179,18.5
11180,18.0
11182,10.2
11188,16.7
11189,18.5
11190,25.4
11191,-25.3
11194,16.9
11196,12.6
11197,5.0
11200,30.6
11202,28.1
11203,28.7
11204,15.9
11205,6.9
11207,5.6
11208,24.8
11212,21.7
11213,3.8
11214,13.9
11215,12.9
11216,-2.1
11222,22.6
11223,14.0
11224,8.2
11225,15.5
11226,25.2
11227,9.2
11228,27.8
11229,-15.0
11233,4.8
11237,7.0
11240,8.1
11243,28.8
11245,10.8
11250,29.4
11254,9.2
11255,8.2
11256,25.6
11261,10.0
11265,29.6
11266,13.2
11267,0.5
11271,14.0
11272,29.0
11274,13.8
11276,16.1
11278,23.6
11281,14.5
11284,17.8
11285,17.3
11289,19.5
11290,-15.0
11291,7.5
11293,10.8
11297,25.5
11298,11.1
11299,13.3
11300,6.4
11301,11.6
11302,20.5
11303,15.9
11304,11.8
11305,29.8
11307,19.2
11308,30.2
11311,14.7
11312,13.7
11313,29.0
11317,-4.7
11319,27.0
11324,7.0
11326,21.8
11329,-20.1
11330,27.3
11331,24.4
11332,24.0
11333,27.5
11334,22.9
11335,8.0
11336,29.5
11338,23.7
11339,22.7
11340,20.2
11342,28.8
11343,19.4
11347,9.0
11348,22.2
11349,10.5
11352,6.9
11353,6.7
11355,5.6
11358,6.1
11363,15.2
11365,24.9
11366,-2.1
11369,13.4
11371,3.1
11374,7.1
11378,8.5
11379,36.5
11381,28.0
11383,15.9
11387,30.6
11388,22.3
11390,26.9
11391,21.7
11392,10.8
11395,22.6
11396,11.0
11397,12.7
11398,16.8
11399,18.9
11401,27.0
11402,6.8
11403,6.3
11404,15.9
11407,17.6
11416,-4.7
11418,22.5
11419,4.5
11428,-20.1
11429,3.7
11430,9.4
11431,20.1
11433,6.8
11437,11.2
11441,18.6
11443,26.2
11445,26.5
11448,29.4
11450,29.5
11451,24.7
11454,8.4
11455,5.6
11458,21.1
11459,27.7
11460,22.4
11461,28.9
11462,22.6
11465,10.6
11466,-2.1
11467,4.8
11469,28.8
11470,16.7
11471,24.4
11472,15.5
11473,14.1
11475,14.4
11477,9.2
11478,6.9
11479,39.1
11480,27.2
11482,30.4
11491,13.3
11492,17.6
11494,8.6
11497,6.2
11498,30.7
11501,27.7
11503,13.3
11505,26.1
11506,3.8
11508,29.6
11510,4.4
11511,27.9
11516,-4.7
11517,21.9
11518,11.2
11520,28.7
11527,6.5
11528,25.9
11529,-20.1
11534,24.7
11535,27.4
11536,8.7
11537,30.8
11538,9.0
11540,26.8
11542,23.6
11543,21.9
11545,13.7
11546,29.5
11548,17.3
11550,29.3
11554,3.0
11555,22.4
11557,19.9
11558,17.0
11560,23.7
11566,-4.7
11567,5.4
11569,8.8
11571,3.2
11574,12.4
11576,22.0
11579,39.1
11581,20.0
11583,11.0
11584,15.2
11585,28.6
11586,6.7
11587,18.7
11591,13.3
11593,13.4
11596,14.7
11597,18.9
11598,26.4
11603,13.3
11604,6.2
11605,8.3
11607,10.3
11608,13.3
11610,27.3
11613,28.4
11615,29.1
11616,-2.1
11617,13.5
11618,26.1
11619,30.1
11620,27.5
11623,5.2
11628,-22.7
11629,28.2
11630,11.2
11631,6.1
11635,12.7
11642,23.6
11646,28.2
11648,23.0
11650,28.0
11651,21.0
11652,18.1
11655,3.0
11657,4.4
11658,29.6
11659,23.5
11660,19.2
11662,24.2
11664,23.6
11666,-4.7
11667,11.0
11669,20.9
11672,4.7
11678,39.1
11679,4.7
11681,9.8
11683,12.8
11686,13.8
11687,17.3
11690,5.1
11691,13.3
11693,9.0
11696,12.2
11699,17.6
11702,21.3
11703,10.8
11704,10.7
11707,21.1
11709,16.4
11711,15.8
11712,12.9
11713,4.4
11714,4.2
11716,5.6
11717,20.9
11718,5.9
11721,14.3
11723,29.1
11724,13.7
11725,15.5
11726,16.6
11727,-15.0
11728,25.8
11729,18.4
11732,4.0
11734,29.9
11740,20.0
11741,26.2
11742,7.3
11749,16.0
11750,28.5
11751,5.9
11752,28.1
11753,5.6
11754,17.8
11755,18.6
11756,22.7
11757,16.5
11759,5.9
11760,5.6
11761,13.2
11764,0.5
11769,29.0
11770,14.9
11771,25.4
11776,30.4
11777,23.6
11778,6.2
11781,18.9
11786,16.2
11787,26.3
11788,15.3
11789,-20.1
11791,19.2
11796,23.0
11802,15.9
11803,8.7
11805,8.6
11806,14.6
11810,16.3
11811,4.2
11813,12.0
11814,-4.7
11815,3.8
11816,30.2
11817,18.0
11820,13.5
11822,10.2
11823,21.0
11824,4.9
11826,12.7
11827,-17.5
11829,12.2
11830,22.8
11832,18.3
11833,9.9
11834,29.7
11837,30.6
11840,19.2
11841,28.8
11842,19.6
11847,24.3
11848,7.6
11849,7.5
11852,14.2
11853,5.6
11855,7.0
11858,16.1
11861,24.7
11862,16.5
11865,0.5
11866,18.7
11867,4.9
11869,12.2
11872,25.8
11873,29.0
11874,15.0
11876,26.2
11878,16.6
11879,27.3
11881,3.1
11882,27.5
11883,8.7
11884,7.2
11888,-12.4
11889,17.4
11890,8.7
11893,28.2
11895,15.9
11896,16.4
11898,13.8
11899,19.6
11901,15.9
11902,25.7
11903,9.2
11904,11.9
11911,20.9
11912,25.7
11915,-4.7
11916,22.9
11917,7.6
11918,6.5
11920,17.5
11921,29.4
11927,-17.5
11933,14.9
11934,30.1
11935,3.1
11939,18.2
11940,26.2
11942,25.9
11943,29.4
11944,3.2
11947,28.7
11952,28.9
11953,5.6
11954,6.5
11955,23.2
11957,3.2
11959,15.8
11964,-2.1
11968,26.2
11970,18.6
11971,23.0
11973,7.7
11977,39.1
11979,16.5
11980,16.3
11984,15.8
11985,23.9
11990,13.3
11991,24.2
11992,6.4
11993,24.3
11998,11.2
11999,11.9
12000,22.4
12001,16.5
12002,15.9
12004,17.1
12007,13.9
12008,3.0
12009,19.9
12010,3.2
12012,28.4
12014,-4.7
12015,7.1
12017,4.3
12018,7.0
12019,27.0
12020,6.9
12023,11.3
12026,-20.1
12027,11.1
12029,9.1
12032,22.0
12034,4.5
12035,23.7
12037,16.5
12038,26.0
12039,21.5
12041,23.6
12043,30.6
12044,5.6
12045,20.3
12047,29.0
12048,22.9
12050,15.0
12052,6.4
12053,3.0
12054,19.2
12058,20.7
12059,6.0
12060,13.2
12064,-4.7
12066,20.1
12067,12.8
12068,14.2
12069,24.6
12070,14.4
12071,4.1
12072,20.1
12073,22.1
12077,39.1
12080,17.7
12082,9.6
12083,11.1
12087,10.4
12089,13.3
12092,3.5
12095,23.0
12096,7.3
12097,29.2
12099,26.5
12101,13.3
12102,29.5
12103,30.6
12104,13.6
12105,23.0
12109,8.5
12111,15.8
12112,8.6
12114,-4.7
12115,22.4
12116,6.6
12117,5.5
12120,5.1
12124,10.2
12125,30.6
12126,22.7
12127,-20.1
12131,15.8
12133,13.1
12137,11.0
12139,21.8
12140,23.6
12142,14.8
12143,24.3
12145,12.4
12148,25.1
12152,3.0
12156,19.4
12158,5.3
12161,29.5
12163,4.0
12164,-4.7
12165,22.7
12168,4.2
12171,14.1
12173,26.2
12174,7.2
12177,39.1
12178,3.2
12182,17.1
12183,6.8
12185,12.8
12188,19.0
12189,15.9
12194,8.9
12195,10.3
12199,16.1
12200,12.4
12201,10.8
12208,15.8
12210,18.6
12212,26.9
12214,3.0
12215,9.2
12218,11.1
12219,17.0
12221,8.8
12224,16.8
12225,-15.0
12226,5.5
12230,8.2
12231,10.9
12238,14.3
12239,28.8
12240,19.0
12244,25.9
12247,13.8
12252,10.8
12253,30.2
12254,22.9
12255,28.9
12259,30.6
12260,13.8
12261,10.9
12263,26.3
12264,-7.2
12265,25.7
12267,3.6
12270,8.8
12271,29.4
12272,29.6
12273,22.4
12275,25.9
12276,39.1
12280,14.4
12282,13.2
12284,24.8
12285,7.0
12287,14.0
12289,15.9
12290,12.3
12291,27.0
12293,19.6
12294,7.7
12297,23.2
12301,10.8
12304,21.8
12309,11.1
12311,4.1
12314,8.2
12316,4.0
12319,27.7
12320,21.9
12321,7.0
12325,-15.0
12327,18.3
12328,21.6
12329,5.4
12332,21.7
12334,13.6
12339,28.8
12340,3.5
12345,5.4
12346,3.7
12350,24.4
12351,8.2
12354,10.8
12356,26.1
12357,16.9
12358,6.2
12360,29.7
12361,8.7
12362,0.5
12363,4.6
12364,21.1
12366,23.3
12372,30.7
12375,23.6
12377,12.0
12378,14.8
12382,21.4
12383,9.1
12387,-17.5
12388,19.8
12389,24.4
12391,28.1
12392,25.7
12397,5.5
12400,15.9
12401,4.6
12402,23.2
12403,19.5
12407,17.7
12408,19.7
12410,9.6
12411,18.5
12412,-4.7
12413,17.6
12414,23.4
12415,25.7
12420,11.7
12425,-17.5
12428,26.1
12429,30.1
12431,7.9
12435,21.0
12436,29.6
12437,12.4
12439,26.2
12440,29.7
12442,4.8
12448,18.2
12450,29.4
12451,8.2
12457,24.2
12458,20.5
12461,4.4
12463,-2.1
12464,23.7
12465,4.4
12466,10.4
12468,9.2
12470,15.4
12473,14.9
12475,39.1
12477,9.8
12479,14.7
12480,7.8
12481,28.7
12482,3.7
12483,25.1
12485,5.3
12487,13.3
12489,30.6
12491,21.9
12493,15.0
12495,4.9
12497,26.9
12499,13.3
12500,27.2
12501,19.0
12503,24.8
12505,28.0
12506,30.5
12509,24.5
12512,26.7
12513,-4.7
12514,27.4
12516,28.5
12518,9.2
12520,30.8
12522,27.2
12525,-17.5
12526,5.5
12530,30.4
12531,22.1
12533,29.5
12534,21.9
12535,23.8
12538,26.2
12539,3.2
12540,20.2
12541,16.9
12547,8.7
12550,15.5
12551,5.6
12554,17.1
12555,30.4
12557,5.7
12559,19.4
12561,6.5
12562,-2.1
12563,11.6
12564,21.7
12566,20.0
12567,16.3
12572,14.4
12573,27.2
12574,21.1
12575,36.5
12579,24.2
12580,5.9
12583,25.7
12584,15.0
12585,22.3
12587,5.8
12588,13.3
12589,16.9
12590,14.1
12592,28.1
12593,21.4
12594,18.2
12595,29.8
12596,14.5
12597,9.6
12600,13.3
12601,18.3
12602,28.4
12603,21.7
12604,3.7
12606,23.4
12610,14.1
12611,24.7
12612,-4.7
12613,20.9
12615,15.9
12622,14.2
12623,19.6
12624,-20.1
12625,8.2
12626,15.1
12627,15.4
12632,26.3
12633,17.4
12636,19.0
12638,22.3
12639,23.6
12642,15.5
12643,14.1
12645,29.6
12647,30.7
12649,12.1
12651,3.0
12652,8.2
12654,28.7
12657,19.9
12662,-4.7
12664,28.0
12665,18.1
12666,20.1
12667,16.0
12668,19.3
12670,9.8
12672,11.9
12675,36.5
12677,18.0
12679,6.8
12681,12.6
12686,16.3
12687,15.9
12689,16.0
12694,15.1
12696,30.3
12699,10.8
12702,26.4
12703,13.6
12704,3.7
12709,26.5
12710,28.5
12712,0.5
12717,13.3
12719,23.8
12720,3.7
12722,3.8
12724,-15.0
12725,5.0
12726,22.9
12731,29.2
12732,6.5
12733,15.3
12734,28.0
12736,24.9
12737,28.8
12738,12.2
12739,18.4
12740,8.3
12743,5.0
12744,26.0
12745,19.5
12746,29.6
12749,10.8
12753,12.9
12755,14.1
12758,25.4
12759,18.0
12760,15.4
12761,21.2
12762,-7.2
12763,26.6
12764,11.6
12765,15.0
12766,4.6
12770,21.2
12771,24.7
12773,3.1
12774,19.9
12775,39.1
12780,10.3
12781,19.6
12784,20.9
12787,15.9
12788,17.6
12792,15.5
12793,26.4
12794,16.8
12795,20.9
12796,30.8
12799,20.5
12800,13.3
12801,21.0
12802,24.7
12805,19.5
12806,3.5
12808,5.8
12809,27.6
12810,12.5
12811,3.4
12812,8.2
12818,21.0
12821,14.0
12822,20.5
12823,-17.5
12824,16.8
12830,7.8
12832,24.1
12833,3.6
12834,21.5
12835,19.8
12836,28.8
12839,7.2
12840,8.1
12841,9.4
12845,8.3
12846,19.9
12847,26.0
12848,20.8
12850,8.2
12852,3.4
12853,7.7
12856,4.2
12857,24.9
12858,17.0
12860,8.5
12861,0.5
12863,29.3
12865,25.7
12866,25.0
12867,28.3
12869,21.2
12870,14.9
12871,10.3
12872,21.0
12873,25.5
12874,15.6
12875,9.7
12876,29.5
12879,23.6
12882,11.1
12884,-17.5
12886,3.7
12888,25.7
12891,16.9
12893,24.9
12896,5.6
12897,21.0
12898,15.9
12899,10.8
12900,13.9
12902,21.6
12903,19.7
12908,28.2
12911,-4.7
12912,22.0
12913,28.4
12914,10.2
12917,23.2
12923,-17.5
12925,18.2
12927,16.8
12928,8.8
12929,21.1
12930,10.1
12931,13.4
12934,10.1
12935,23.3
12936,10.9
12937,26.2
12938,21.3
12939,28.1
12940,30.3
12942,21.6
12943,14.7
12945,29.0
12947,17.4
12949,5.6
12960,-2.1
12961,21.7
12962,27.4
12963,17.2
12966,25.0
12968,18.7
12969,27.0
12970,21.5
12971,29.0
12972,21.3
12974,36.5
12975,29.5
12976,20.6
12979,26.9
12980,26.3
12983,9.0
12984,30.4
12985,26.2
12986,8.2
12987,17.5
12988,9.7
12990,3.8
12991,21.6
12993,15.9
12995,13.2
12997,23.6
12998,16.2
13001,28.9
13003,28.2
13004,11.1
13008,7.5
13009,3.0
13016,27.7
13017,14.4
13021,-4.7
13022,25.5
13024,18.7
13028,21.4
13031,21.2
13033,39.1
13034,11.4
13040,27.4
13041,23.4
13043,30.9
13046,15.9
13048,22.3
13050,27.3
13051,3.9
13056,3.7
13057,23.3
13058,11.6
13059,13.3
13061,25.4
13063,13.1
13066,23.2
13068,19.7
13070,17.9
13071,3.0
13072,14.2
13074,7.6
13075,26.0
13077,4.4
13078,8.5
13082,-15.0
13084,7.8
13085,30.6
13091,19.9
13095,28.8
13097,8.5
13098,4.3
13099,16.1
13101,9.4
13103,23.7
13105,28.4
13109,8.2
13110,26.6
13113,19.5
13114,10.5
13115,25.1
13116,12.7
13120,0.5
13122,20.6
13125,22.2
13128,9.8
13129,28.9
13130,4.8
13131,18.5
13133,6.9
13134,18.7
13135,12.8
13138,12.9
13140,21.9
13141,22.3
13144,-22.7
13145,20.8
13148,11.4
13151,12.6
13153,21.4
13156,29.9
13157,18.5
13159,5.6
13161,8.9
13162,9.4
13163,4.8
13164,28.4
13167,19.7
13169,24.6
13170,-2.1
13175,22.2
13179,22.2
13182,-17.5
13183,26.1
13184,24.0
13186,20.4
13189,26.3
13192,12.3
13195,5.2
13196,26.2
13206,23.2
13208,8.2
13210,28.4
13219,-2.1
13220,6.1
13221,9.7
13222,12.9
13224,3.8
13226,30.8
13227,7.7
13228,13.0
13231,27.8
13232,36.5
13233,25.9
13234,7.2
13238,15.2
13239,21.9
13241,28.4
13245,10.8
13246,25.6
13247,12.6
13249,22.4
13251,17.7
13254,16.9
13257,15.9
13259,17.8
13260,18.5
13261,22.0
13262,12.8
13264,12.6
13268,5.2
13270,-4.7
13271,20.7
13273,15.1
13275,4.1
13279,19.9
13281,28.4
13282,-17.5
13283,5.3
13284,9.5
13286,5.6
13287,16.3
13288,28.3
13291,11.5
13292,26.2
13294,11.8
13295,28.8
13296,22.2
13297,22.3
13298,22.6
13301,28.9
13305,14.7
13306,16.3
13307,18.2
13308,8.2
13309,6.0
13310,15.8
13318,9.9
13320,-2.1
13322,10.0
13325,5.7
13332,39.1
13334,26.6
13335,26.7
13336,21.7
13338,26.3
13340,13.5
13342,14.8
13344,10.8
13345,23.2
13347,27.3
13349,7.7
13350,14.9
13352,27.7
13353,7.9
13356,14.9
13357,15.9
13359,17.4
13365,17.7
13366,17.3
13370,-4.7
13372,24.9
13373,15.4
13374,7.5
13375,19.5
13381,29.1
13382,-20.1
13383,14.9
13385,9.6
13388,19.9
13393,15.1
13395,26.2
13397,3.6
13399,26.6
13401,28.8
13404,19.7
13408,5.6
13410,29.6
13411,15.2
13412,16.8
13413,4.7
13414,12.4
13415,22.9
13417,23.2
13419,-2.1
13421,26.0
13424,18.1
13425,28.7
13426,6.5
13427,22.0
13428,23.3
13429,15.3
13431,39.1
13433,21.9
13435,5.8
13436,7.9
13437,24.3
13439,10.9
13440,9.4
13444,24.7
13445,13.3
13446,28.8
13449,17.9
13450,4.1
13453,17.1
13455,26.8
13457,13.3
13464,5.5
13466,11.2
13468,7.3
13469,-7.2
13470,7.1
13476,20.0
13480,9.8
13481,-20.1
13482,11.3
13484,4.3
13489,22.0
13490,18.5
13491,25.0
13493,9.7
13494,9.9
13495,23.6
13496,6.7
13498,13.1
13502,13.4
13507,13.6
13508,3.0
13509,8.2
13510,20.1
13511,6.1
13512,12.3
13513,19.5
13518,24.0
13519,-2.1
13520,20.6
13525,8.4
13527,5.4
13529,26.8
13530,8.7
13532,39.1
13537,11.4
13538,15.2
13539,20.2
13543,9.3
13544,13.3
13545,25.3
13547,27.8
13548,22.2
13550,27.0
13554,21.6
13556,13.3
13560,19.4
13561,16.5
13567,22.0
13569,6.0
13570,0.5
13572,3.4
13574,7.1
13575,19.4
13576,29.6
13578,29.2
13579,19.9
13581,-15.0
13583,13.9
13586,24.9
13588,12.5
13589,4.8
13591,15.7
13594,26.2
13605,27.0
13606,10.8
13609,17.3
13610,26.6
13611,7.0
13613,20.2
13616,23.8
13617,23.5
13619,-4.7
13620,16.7
13624,26.0
13625,7.4
13629,5.7
13630,18.4
13631,39.1
13637,14.1
13640,28.2
13641,25.0
13642,15.4
13643,22.0
13644,13.3
13646,15.2
13647,16.6
13649,24.6
13650,13.1
13652,18.8
13653,22.1
13654,16.6
13656,15.4
13657,10.8
13658,11.2
13661,26.8
13662,23.7
13665,26.5
13666,5.3
13667,27.2
13668,4.6
13669,5.6
13670,10.7
13671,4.4
13676,25.6
13680,-17.5
13683,8.0
13684,6.7
13685,21.1
13686,23.8
13687,17.6
13690,18.7
13693,28.8
13695,18.5
13696,4.0
13697,9.0
13699,29.3
13701,20.9
13702,27.7
13706,7.8
13707,8.2
13710,11.9
13712,14.2
13713,24.3
13717,4.3
13718,0.5
13720,21.2
13721,4.3
13725,3.2
13726,24.9
13727,25.1
13729,21.0
13732,10.6
13734,22.2
13735,15.9
13738,12.7
13739,20.5
13742,-17.5
13745,18.0
13746,23.3
13755,18.5
13762,9.7
13763,14.9
13765,17.1
13766,4.3
13767,-2.1
13769,27.9
13770,26.2
13771,21.6
13772,15.5
13773,5.0
13775,27.4
13776,11.8
13777,9.8
13780,-17.5
13787,10.9
13788,4.7
13790,18.3
13791,7.5
13792,3.1
13793,9.6
13794,26.2
13799,21.4
13800,7.7
13801,25.3
13806,8.2
13809,7.9
13811,24.6
13812,23.7
13813,22.2
13815,5.2
13816,24.1
13817,0.5
13818,13.8
13819,6.4
13820,24.8
13827,14.5
13828,14.6
13829,26.2
13831,3.3
13832,18.0
13833,21.9
13835,22.0
13837,21.2
13838,22.6
13840,30.7
13841,23.7
13842,-12.4
13844,19.8
13846,16.0
13847,17.3
13850,22.8
13852,21.1
13855,15.9
13857,15.0
13858,8.2
13859,4.2
13863,12.9
13864,5.3
13865,22.6
13867,5.8
13868,-4.7
13869,4.4
13872,16.3
13874,3.2
13875,6.2
13876,9.8
13878,18.7
13880,-20.1
13881,27.4
13882,3.8
13883,21.3
13887,17.9
13888,20.0
13893,28.8
13894,5.9
13896,9.1
13897,3.2
13899,13.4
13900,24.4
13903,27.7
13905,19.4
13906,5.6
13909,5.3
13912,10.4
13913,21.0
13915,13.1
13916,29.2
13918,-2.1
13921,14.8
13924,16.2
13927,20.3
13928,12.6
13929,13.9
13930,39.1
13931,6.2
13934,8.2
13936,15.0
13937,5.2
13938,15.3
13942,10.8
13943,23.6
13946,25.7
13949,22.3
13950,21.9
13952,17.0
13953,24.0
13955,13.3
13957,26.7
13961,9.7
13964,12.9
13965,6.0
13966,23.8
13967,-7.2
13968,24.4
13970,13.7
13972,24.7
13973,18.2
13976,29.3
13978,13.4
13979,16.8
13980,-20.1
13982,15.8
13984,8.5
13985,26.7
13987,17.7
13990,23.9
13991,26.0
13992,4.3
13993,23.6
13994,23.4
13998,9.1
14003,21.3
14004,23.1
14006,5.6
14007,29.8
14008,21.7
14011,29.9
14014,11.5
14017,-2.1
14018,25.0
14019,27.8
14021,7.9
14022,14.9
14023,23.4
14026,3.0
14028,29.6
14029,39.1
14032,6.1
14039,25.6
14041,14.7
14042,5.7
14043,13.3
14047,11.3
14051,20.5
14052,5.9
14053,8.2
14055,13.3
14059,17.3
14060,6.2
14063,14.1
14066,17.9
14067,-4.7
14068,14.8
14070,27.8
14072,14.6
14073,16.4
14075,26.6
14076,13.9
14077,13.6
14079,30.4
14080,-20.1
14083,13.8
14088,17.3
14089,16.5
14090,3.6
14091,13.6
14093,23.6
14095,18.6
14096,29.9
14097,3.1
14102,10.8
14103,9.2
14104,22.1
14105,28.8
14106,3.0
14107,9.4
14109,23.4
14113,22.3
14114,5.2
14116,12.6
14117,-4.7
14120,30.3
14123,23.9
14128,7.1
14129,29.7
14130,39.1
14131,30.7
14135,19.6
14136,21.5
14141,7.7
14142,13.3
14145,29.2
14146,13.7
14150,19.8
14154,10.8
14155,10.8
14157,4.2
14160,10.4
14162,13.6
14163,29.2
14164,7.1
14167,3.0
14174,5.6
14175,18.2
14176,7.8
14177,17.4
14179,-15.0
14181,10.9
14183,6.5
14184,8.4
14192,28.8
14193,5.5
14194,6.2
14198,22.5
14199,24.6
14200,29.5
14204,8.2
14206,21.3
14208,26.7
14209,16.5
14210,22.0
14212,17.7
14213,23.4
14216,3.0
14218,26.4
14219,17.6
14221,10.1
14222,19.1
14225,28.0
14227,18.5
14228,19.3
14229,15.6
14233,19.8
14234,11.8
14235,29.0
14236,6.8
14240,-22.7
14242,16.7
14245,6.1
14246,18.3
14249,14.5
14254,18.5
14255,12.4
14256,14.7
14257,17.5
14259,5.7
14264,20.4
14265,21.6
14266,-2.1
14267,30.9
14269,28.0
14270,3.3
14271,5.2
14272,8.9
14273,25.4
14274,26.9
14276,27.2
14277,11.8
14278,-17.5
14280,27.1
14285,5.7
14286,14.4
14288,26.2
14289,7.7
14290,15.9
14291,28.8
14293,29.7
14294,26.3
14295,15.6
14296,8.0
14297,27.3
14301,14.6
14303,14.7
14304,11.5
14305,8.2
14306,14.5
14307,16.7
14308,18.7
14310,5.0
14311,19.1
14312,28.0
14313,17.7
14314,22.3
14315,19.5
14316,-2.1
14317,19.3
14323,19.4
14326,14.0
14328,36.5
14330,30.4
14331,7.7
14332,4.3
14333,24.4
14334,21.0
14336,3.4
14338,5.2
14340,30.8
14341,10.8
14343,12.7
14344,25.3
14345,22.5
14346,6.2
14347,9.2
14348,30.5
14349,8.4
14350,28.8
14353,15.9
14354,25.5
14355,9.8
14359,16.2
14361,27.1
14365,-4.7
14366,12.2
14368,19.2
14370,24.1
14373,4.3
14374,22.3
14377,26.4
14378,9.8
14379,-17.5
14380,21.8
14381,19.8
14382,24.0
14387,13.4
14389,24.7
14390,17.1
14391,12.6
14392,26.2
14394,14.8
14395,30.1
14397,27.3
14401,22.0
14404,5.6
14405,28.7
14408,18.3
14411,26.3
14413,7.3
14414,26.8
14415,-2.1
14417,31.0
14418,9.1
14419,20.7
14420,7.1
14421,12.0
14424,29.9
14425,12.6
14428,36.5
14430,15.3
14432,10.6
14434,26.3
14435,22.6
14438,8.2
14441,13.3
14448,18.6
14450,27.6
14453,15.9
14454,20.6
14457,26.6
14458,28.3
14459,26.3
14463,26.3
14466,-4.7
14469,27.3
14473,28.1
14478,-20.1
14479,28.3
14482,6.0
14487,22.7
14489,8.1
14490,8.3
14491,26.2
14492,25.7
14493,6.4
14494,18.2
14503,9.5
14504,5.6
14505,19.8
14506,13.0
14510,5.7
14511,8.8
14512,24.6
14515,10.0
14516,-2.1
14517,9.5
14518,11.8
14520,9.1
14522,4.5
14524,9.8
14525,28.1
14526,25.4
14528,36.5
14530,19.7
14532,17.6
14533,23.6
14534,24.7
14536,20.4
14540,13.3
14543,21.2
14547,15.0
14549,21.5
14550,13.1
14552,25.1
14553,15.9
14555,18.1
14557,6.8
14558,10.8
14561,23.4
14565,-4.7
14566,18.7
14570,24.0
14572,19.9
14577,7.9
14578,-22.7
14581,6.0
14582,16.5
14583,24.7
14584,8.3
14588,21.2
14590,24.3
14591,5.6
14592,23.6
14593,14.2
14595,4.8
14596,27.6
14601,9.0
14602,20.4
14604,3.0
14605,8.4
14606,15.0
14607,3.8
14608,22.4
14614,6.4
14615,-4.7
14621,21.4
14622,22.8
14623,30.3
14624,22.8
14625,8.0
14627,39.1
14632,6.7
14634,7.8
14636,7.8
14637,26.8
14638,10.6
14639,22.3
14641,13.3
14642,17.7
14646,25.2
14648,23.2
14650,25.7
14653,13.3
14654,4.7
14655,21.9
14657,9.9
14659,23.5
14660,15.1
14663,11.6
14665,0.5
14666,3.4
14668,28.0
14669,5.8
14670,25.1
14671,11.1
14672,7.7
14674,24.3
14675,18.5
14676,-15.0
14680,26.9
14681,7.3
14684,30.6
14686,3.9
14689,22.4
14690,28.8
14694,9.9
14696,26.4
14699,13.3
14700,22.5
14702,11.6
14703,10.8
14705,14.5
14715,-4.7
14716,22.6
14717,29.3
14719,6.3
14722,23.6
14728,39.1
14730,14.9
14734,4.8
14736,12.4
14738,30.7
14739,3.2
14740,15.9
14743,25.5
14746,11.0
14747,11.7
14752,13.3
14753,12.8
14754,20.4
14755,20.4
14757,4.8
14758,8.4
14760,4.1
14763,11.7
14765,5.6
14766,20.8
14767,11.4
14770,12.1
14772,5.6
14773,20.7
14775,4.6
14776,28.5
14777,-15.0
14781,8.0
14782,27.1
14783,21.7
14784,26.0
14786,5.0
14788,21.0
14789,11.9
14790,28.8
14795,11.9
14798,10.5
14801,24.0
14802,8.2
14806,19.6
14807,7.9
14810,20.8
14812,7.9
14814,0.5
14816,16.4
14818,22.9
14819,15.1
14820,21.6
14821,31.0
14824,19.8
14825,21.0
14827,24.7
14829,19.0
14830,9.5
14837,18.0
14838,-20.1
14840,5.6
14841,10.0
14848,26.4
14850,20.5
14851,18.2
14852,18.5
14853,24.1
14856,20.0
14857,3.5
14858,20.4
14859,9.5
14862,25.2
14863,6.6
14864,-2.1
14865,21.3
14866,27.0
14868,11.2
14871,13.6
14873,21.9
14875,17.3
14876,-17.5
14877,8.3
14878,14.5
14879,8.6
14882,11.4
14883,17.5
14885,19.9
14887,29.7
14889,26.2
14891,10.2
14892,16.2
14894,5.9
14899,29.8
14900,17.8
14901,15.2
14903,5.6
14907,20.1
14912,23.5
14914,-2.1
14916,17.2
14917,24.7
14919,13.1
14923,11.1
14926,36.5
14928,11.0
14929,23.4
14933,7.9
14936,29.4
14939,10.8
14946,29.5
14951,18.5
14955,18.5
14956,12.6
14957,15.6
14963,-4.7
14964,8.7
14967,26.0
14968,3.6
14970,27.1
14977,-17.5
14978,7.6
14980,24.3
14982,18.7
14985,28.3
14988,17.6
14990,28.8
14991,20.4
14992,13.5
14996,10.6
14997,30.6
14998,16.4
15001,20.7
15002,5.6
15005,3.2
15007,18.9
15010,25.6
15013,-2.1
15014,19.9
15015,29.9
15016,10.9
15020,8.9
15022,19.8
15025,26.5
15026,39.1
15027,16.2
15028,12.2
15032,10.2
15036,6.5
15037,18.4
15039,10.8
15041,8.6
15042,4.1
15045,19.6
15046,19.5
15047,10.7
15048,18.4
15051,13.3
15052,29.6
15055,8.9
15056,10.7
15058,11.0
15060,23.4
15062,21.1
15064,-4.7
15065,21.7
15067,17.5
15069,15.1
15070,15.6
15072,18.1
15073,19.2
15076,-20.1
15079,15.8
15083,14.4
15084,6.0
15085,22.6
15086,26.9
15087,3.6
15089,23.6
15094,27.2
15095,26.9
15096,19.4
15098,5.4
15099,10.3
15101,15.3
15102,3.0
15105,5.3
15108,3.7
15110,24.2
15111,25.4
15113,10.3
15114,-4.7
15119,29.6
15120,23.0
15122,29.5
15124,5.9
15125,14.0
15126,39.1
15127,26.2
15128,14.7
15130,23.4
15131,3.0
15132,12.5
15133,18.2
15134,17.1
15135,29.4
15136,22.2
15138,13.3
15139,13.8
15142,21.5
15144,10.3
15147,27.8
15150,22.1
15151,13.3
15153,8.7
15154,22.4
15157,30.2
15161,13.3
15163,-4.7
15166,27.9
15168,30.5
15169,19.1
15170,12.2
15171,27.7
15174,30.8
15176,-20.1
15179,10.8
15180,24.3
15182,3.5
15186,12.4
15187,14.5
15188,27.0
15190,23.6
15196,19.1
15198,29.6
15199,16.6
15200,11.7
15202,3.0
15205,6.8
15206,22.9
15208,28.2
15209,28.2
15210,25.3
15212,15.2
15213,-4.7
15214,16.2
15215,22.7
15216,19.5
15217,28.2
15221,25.4
15222,6.5
15224,29.9
15225,39.1
15228,26.6
15230,12.3
15231,30.4
15232,22.1
15236,9.7
15238,12.1
15239,13.3
15245,22.8
15247,16.7
15249,23.8
15251,10.8
15252,24.2
15257,27.5
15258,11.4
15263,3.0
15265,30.8
15268,5.0
15269,14.5
15274,24.2
15275,-15.0
15277,17.5
15278,11.1
15279,9.8
15284,24.0
15288,28.8
15292,27.1
15295,27.3
15298,21.8
15299,8.5
15301,10.8
15305,17.3
15306,9.2
15307,23.2
15308,5.4
15310,24.6
15311,26.8
15313,-7.2
15315,7.0
15317,18.4
15319,13.6
15320,12.3
15322,30.1
15324,20.1
15325,8.8
15326,39.1
15328,24.3
15331,21.0
15334,17.1
15335,13.3
15338,15.9
15345,28.4
15347,28.3
15348,16.7
15349,12.8
15350,10.8
15351,13.5
15357,16.3
15358,28.0
15359,13.8
15360,14.6
15362,4.4
15363,8.2
15365,8.4
15367,14.8
15368,10.1
15370,22.0
15371,8.9
15372,19.7
15373,14.3
15374,24.9
15375,-15.0
15376,13.6
15377,23.7
15380,9.8
15383,5.9
15385,5.0
15388,26.2
15389,30.0
15391,8.5
15398,13.4
15399,22.0
15400,8.2
15402,5.5
15403,23.0
15404,23.8
15407,4.3
15408,27.7
15410,26.5
15412,0.5
15417,27.8
15422,11.4
15423,21.0
15424,27.3
15425,15.9
15426,27.8
15428,7.8
15435,14.6
15436,-15.0
15437,6.8
15438,9.9
15439,14.0
15442,18.1
15445,22.5
15446,17.3
15447,28.2
15450,15.9
15451,18.5
15452,27.8
15453,16.7
15459,16.9
15462,-4.7
15469,24.9
15470,30.1
15471,27.0
15474,-17.5
15478,20.2
15479,22.2
15481,21.2
15483,29.3
15484,26.5
15486,23.0
15487,6.9
15488,26.2
15489,12.9
15490,8.3
15501,8.2
15502,24.0
15505,25.0
15506,27.6
15508,27.3
15511,29.9
15512,-2.1
15516,25.0
15518,16.3
15520,16.0
15524,36.5
15525,18.6
15529,10.9
15530,10.4
15534,7.2
15535,29.8
15537,10.8
15538,16.4
15539,16.1
15540,5.3
15542,19.7
15547,12.8
15548,11.3
15549,15.9
15551,5.1
15554,24.1
15556,24.5
15561,-4.7
15565,21.2
15566,8.8
15567,20.4
15570,4.6
15571,3.9
15574,23.1
15575,-20.1
15577,19.0
15579,10.8
15580,3.9
15581,14.5
15582,14.2
15588,26.2
15592,23.3
15593,7.2
15596,23.9
15597,23.2
15598,12.6
15599,17.7
15600,5.6
15601,29.8
15602,12.3
15603,21.4
15604,13.2
15606,12.6
15610,8.0
15611,-2.1
15612,8.6
15613,22.0
15617,29.4
15623,15.0
15624,39.1
15625,3.9
15628,22.1
15630,28.6
15631,24.4
15633,27.1
15635,4.0
15637,15.9
15638,16.1
15639,27.0
15640,19.0
15642,5.2
15644,4.7
15646,9.9
15647,11.6
15648,30.7
15649,13.3
15652,21.6
15655,26.1
15656,5.2
15660,19.8
15662,-7.2
15666,24.4
15669,17.1
15670,19.6
15672,14.2
15674,-22.7
15678,11.8
15679,5.2
15680,18.3
15681,22.1
15682,11.9
15683,9.0
15684,29.9
15687,23.6
15690,25.1
15691,10.7
15693,14.9
15694,11.7
15695,11.6
15696,15.6
15700,3.0
15701,28.9
15703,17.3
15706,24.4
15707,14.4
15708,16.6
15709,3.0
15710,23.2
15712,-4.7
15713,23.5
15714,14.5
15716,21.8
15717,27.0
15718,26.3
15719,18.3
15720,7.1
15722,20.2
15723,23.7
15724,39.1
15725,22.9
15728,13.3
15729,12.6
15731,19.8
15732,13.5
15736,13.3
15742,17.7
15744,20.3
15745,10.7
15746,7.6
15748,9.5
15749,13.3
15751,9.5
15752,23.4
15753,19.1
15755,8.2
15759,14.8
15761,-2.1
15762,11.0
15764,3.5
15766,10.8
15769,16.5
15770,9.8
15772,18.0
15774,-22.7
15777,7.9
15783,7.4
15784,10.1
15785,12.9
15788,21.0
15791,9.1
15792,5.5
15800,3.0
15801,13.9
15808,3.9
15809,16.6
15810,15.6
15811,-4.7
15812,9.8
15814,18.4
15817,26.5
15818,10.1
15819,23.5
15820,17.0
15821,7.7
15823,36.5
15825,15.7
15828,27.2
15830,26.2
15831,3.1
15832,12.2
15833,10.3
15834,5.9
15835,29.0
15837,13.3
15839,23.9
15841,21.8
15843,28.7
15845,9.3
15849,10.8
15850,17.1
15851,21.1
15854,26.5
15857,30.8
15861,5.6
15863,18.0
15866,23.9
15867,22.6
15868,27.1
15869,14.6
15872,28.9
15873,-15.0
15874,27.2
15876,16.4
15879,5.7
15884,5.5
15886,28.8
15887,8.7
15888,13.3
15890,17.2
15891,8.3
15892,7.0
15894,17.4
15899,8.2
15902,8.5
15904,28.2
15905,30.2
15907,24.6
15910,0.5
15912,18.0
15914,5.2
15918,8.9
15919,20.4
15920,17.8
15921,18.1
15922,21.0
15925,20.9
15926,22.4
15928,16.7
15934,-20.1
15937,19.9
15939,12.6
15942,20.4
15943,20.4
15946,25.6
15947,18.5
15950,17.6
15952,22.8
15954,22.0
15955,30.3
15956,28.7
15957,30.2
15960,-2.1
15962,18.5
15965,13.5
15967,13.1
15968,17.5
15969,27.8
15973,-17.5
15976,27.2
15985,13.6
15986,26.2
15987,12.7
15991,20.4
15998,5.6
15999,9.0
16000,8.8
16002,26.9
16005,19.5
16009,11.7
16010,0.5
16011,24.3
16020,19.0
16021,23.6
16023,18.3
16025,23.1
16026,4.1
16029,4.6
16030,8.5
16031,17.9
16034,-12.4
16038,25.9
16046,27.3
16048,15.9
16052,8.3
16053,6.6
16056,20.0
16059,25.9
16060,-4.7
16062,11.7
16064,7.4
16065,22.3
16067,27.5
16072,-17.5
16073,19.1
16074,23.8
16076,9.8
16078,24.4
16080,4.5
16083,19.5
16085,28.9
16086,26.2
16088,7.9
16092,17.4
16093,7.3
16094,28.3
16095,11.3
16096,30.7
16099,5.6
16101,11.3
16102,14.2
16110,-2.1
16111,8.5
16112,5.3
16113,27.7
16115,13.0
16116,8.5
16117,4.5
16120,4.8
16122,39.1
16124,9.3
16125,8.3
16128,25.6
16130,11.3
16135,13.3
16136,15.6
16137,17.9
16138,21.8
16139,5.8
16140,4.3
16145,31.0
16147,13.3
16155,23.7
16157,13.1
16159,-4.7
16166,18.4
16167,21.6
16173,-20.1
16175,11.8
16177,15.8
16180,23.8
16181,22.8
16183,9.6
16184,25.4
16185,12.1
16186,26.2
16187,27.8
16189,6.4
16191,18.6
16193,30.3
16194,19.7
16197,5.8
16198,5.6
16199,14.4
16201,20.2
16203,28.3
16204,10.5
16207,7.3
16209,-2.1
16210,14.7
16211,22.2
16212,29.2
16213,28.7
16218,25.5
16222,36.5
16224,3.6
16228,30.2
16232,28.7
16233,23.9
16234,30.5
16235,13.3
16236,13.7
16237,20.2
16239,3.5
16240,28.1
16241,27.9
16242,26.8
16243,23.3
16245,20.8
16247,13.3
16249,7.5
16250,10.0
16254,25.4
16255,6.5
16259,18.0
16260,-7.2
16262,14.7
16264,17.1
16267,6.5
16269,22.2
16270,20.7
16272,-20.1
16273,17.0
16275,29.0
16276,14.3
16277,21.2
16279,13.7
16285,23.6
16287,20.3
16289,24.8
16291,29.7
16292,3.9
16297,8.4
16299,3.0
16300,10.6
16301,19.0
16302,29.1
16306,5.4
16307,3.1
16310,-4.7
16315,12.7
16320,9.5
16321,21.5
16322,39.1
16323,20.8
16324,28.8
16327,29.5
16329,12.8
16331,6.6
16333,6.7
16334,15.9
16335,20.6
16338,4.4
16341,8.6
16343,7.1
16345,4.3
16346,21.1
16347,13.3
16348,16.0
16351,26.7
16352,18.6
16353,20.2
16356,23.6
16357,10.1
16359,3.0
16361,8.4
16362,16.0
16367,6.4
16371,-15.0
16372,20.1
16374,5.5
16377,12.4
16378,28.2
16379,25.7
16382,12.3
16384,30.9
16385,31.3
16388,27.8
16390,25.5
16392,3.6
16393,29.0
16396,28.6
16397,10.8
16399,29.5
16403,14.2
16404,25.6
16405,4.2
16409,-4.7
16410,18.5
16413,7.9
16414,29.2
16415,8.1
16416,3.4
16417,24.9
16418,26.7
16419,27.8
16421,39.1
16422,10.4
16425,29.7
16428,14.2
16429,30.4
16430,30.0
16431,4.2
16435,15.9
16436,19.2
16438,10.2
16440,5.3
16441,17.1
16447,10.8
16449,23.4
16450,17.1
16451,15.2
16452,30.0
16453,10.3
16458,4.0
16459,8.2
16461,28.2
16462,12.2
16466,26.5
16468,15.1
16469,6.8
16470,17.4
16471,-17.5
16472,16.8
16474,17.2
16475,17.3
16476,23.4
16482,13.7
16483,14.9
16484,28.8
16485,30.5
16488,30.3
16489,20.5
16490,9.7
16492,8.8
16493,21.5
16495,4.5
16496,8.2
16497,21.1
16501,27.8
16505,6.9
16506,19.6
16507,27.8
16508,0.5
16511,30.8
16512,25.4
16514,27.3
16515,18.6
16518,3.3
16519,10.8
16520,21.0
16524,26.3
16526,10.8
16529,24.1
16530,28.3
16531,5.2
16532,-17.5
16537,19.2
16539,3.4
16541,17.3
16544,8.8
16545,15.9
16547,6.4
16549,23.2
16558,-2.1
16559,10.2
16564,30.9
16565,19.4
16567,30.7
16569,12.0
16571,-17.5
16572,9.9
16574,7.7
16575,23.1
16578,11.1
16584,26.2
16589,5.1
16592,22.9
16595,6.4
16596,5.6
16598,15.9
16599,18.8
16601,4.3
16602,13.1
16604,11.6
16606,6.6
16607,9.7
16608,-2.1
16609,13.0
16611,5.6
16612,23.6
16614,16.3
16615,20.9
16617,26.0
16618,12.3
16620,36.5
16623,9.2
16625,21.4
16626,14.0
16627,3.2
16629,18.6
16630,27.2
16633,10.8
16635,24.3
16636,14.3
16637,20.6
16638,24.0
16640,14.6
16641,25.4
16642,13.6
16646,15.9
16651,21.5
16655,19.6
16656,7.7
16658,-4.7
16659,24.7
16662,29.3
16663,18.0
16664,8.2
16666,27.8
16667,17.7
16670,-20.1
16671,7.6
16672,18.0
16678,3.0
16679,24.4
16684,26.2
16685,17.8
16688,7.3
16689,13.5
16692,4.2
16693,28.2
16694,17.4
16695,15.0
16696,5.6
16697,23.4
16700,22.1
16703,26.3
16705,16.6
16706,14.5
16707,16.9
16708,-2.1
16709,3.5
16711,29.6
16713,10.8
16718,25.4
16719,9.1
16720,39.1
16723,30.3
16725,23.6
16728,19.1
16729,26.3
16733,13.3
16741,16.3
16745,15.9
16746,7.1
16750,9.5
16751,20.8
16752,5.3
16754,16.4
16757,-4.7
16759,28.1
16760,22.1
16761,22.9
16763,19.8
16767,7.4
16771,-20.1
16772,17.1
16773,20.4
16776,10.7
16777,22.8
16778,30.0
16779,5.4
16781,22.2
16784,23.6
16791,22.8
16792,11.2
16796,3.0
16797,17.7
16801,22.1
16803,30.5
16806,7.4
16807,-4.7
16808,15.4
16810,24.3
16813,26.5
16815,21.3
16818,25.1
16820,39.1
16822,20.3
16826,14.9
16827,12.4
16829,10.5
16832,14.4
16833,13.3
16836,25.0
16841,5.0
16842,13.0
16845,13.3
16846,21.0
16847,11.7
16848,6.1
16849,14.3
16850,17.8
16851,14.9
16852,29.2
16853,3.2
16857,25.7
16858,-2.1
16862,18.8
16863,8.8
16869,23.6
16870,-20.1
16871,25.9
16872,4.7
16873,6.1
16874,25.0
16876,26.4
16877,5.4
16878,23.6
16879,19.1
16882,21.3
16883,26.2
16884,7.3
16895,28.8
16896,3.0
16897,7.0
16900,17.7
16906,24.3
16907,25.2
16908,-4.7
16909,9.0
16911,24.6
16915,19.8
16917,16.4
16919,14.5
16920,36.5
16929,4.4
16930,20.6
16931,24.5
16932,13.3
16934,15.2
16935,22.4
16937,29.7
16940,25.5
16941,27.5
16943,30.2
16944,10.7
16945,13.3
16947,25.2
16948,8.5
16951,11.4
16953,3.1
16954,26.5
16955,12.3
16957,5.6
16960,9.1
16961,23.9
16962,13.5
16964,27.7
16966,14.2
16968,30.6
16969,-17.5
16970,16.6
16973,29.0
16977,12.1
16983,31.3
16984,10.6
16986,27.7
16987,12.7
16988,19.4
16989,28.0
16990,4.1
16993,27.9
16995,10.8
16998,16.6
17001,10.5
17003,23.9
17006,30.7
17007,-7.2
17011,20.7
17012,6.9
17013,6.8
17015,20.6
17019,39.1
17020,24.0
17025,14.1
17032,22.5
17033,18.5
17035,25.2
17039,20.5
17042,4.8
17043,19.8
17045,10.8
17046,7.3
17048,17.9
17050,30.5
17051,14.4
17052,23.7
17057,10.8
17064,28.9
17067,7.3
17069,17.0
17070,-22.7
17072,23.7
17073,7.8
17074,5.4
17076,27.7
17080,13.0
17081,12.0
17083,21.0
17086,27.8
17087,25.0
17088,26.5
17091,9.1
17092,9.9
17094,3.5
17095,0.5
17096,16.9
17102,12.5
17103,12.0
17107,-7.2
17108,6.9
17111,28.6
17113,13.8
17114,14.7
17115,9.1
17117,20.0
17118,14.1
17119,21.0
17120,39.1
17121,10.5
17122,24.0
17125,3.1
17129,18.7
17130,24.7
17131,3.6
17132,18.5
17133,16.5
17134,12.6
17135,21.7
17139,28.0
17144,10.8
17146,22.5
17149,29.3
17152,20.0
17155,4.8
17157,13.3
17160,16.5
17161,13.4
17164,7.3
17165,22.0
17166,10.8
17167,5.7
17168,11.6
17169,24.9
17170,-25.3
17171,12.5
17172,21.8
17174,15.0
17175,10.7
17177,18.2
17179,17.6
17180,21.8
17182,9.8
17183,18.5
17185,24.9
17187,12.4
17190,19.0
17191,10.6
17195,15.5
17196,-2.1
17197,12.8
17199,24.8
17204,19.3
17208,-15.0
17209,4.0
17216,3.5
17220,12.1
17221,28.8
17222,23.3
17224,10.4
17228,25.2
17229,8.9
17234,8.2
17235,26.4
17240,9.2
17241,24.4
17242,18.0
17243,21.4
17244,5.9
17245,27.1
17246,0.5
17247,25.4
17252,7.9
17253,6.9
17255,3.1
17257,21.0
17258,19.3
17259,24.5
17262,27.0
17266,4.5
17267,14.3
17269,-20.1
17270,29.6
17271,9.7
17274,27.2
17278,12.7
17279,13.1
17280,16.0
17282,6.5
17283,18.5
17285,4.4
17288,4.3
17293,6.4
17295,-2.1
17296,12.3
17297,10.1
17299,15.7
17300,9.4
17301,11.1
17302,29.9
17304,9.7
17305,5.0
17308,-17.5
17311,28.0
17314,10.3
17315,18.0
17316,6.7
17318,12.9
17320,13.2
17321,26.2
17322,29.9
17325,12.4
17329,10.1
17334,8.2
17342,9.3
17343,10.6
17345,-2.1
17346,30.1
17347,20.7
17349,11.7
17353,14.0
17355,12.2
17356,21.2
17357,36.5
17358,16.1
17363,20.3
17365,11.8
17368,9.7
17371,10.8
17375,7.0
17377,13.3
17379,13.4
17381,18.5
17383,18.5
17384,26.4
17386,21.9
17387,19.3
17388,30.1
17391,12.6
17393,23.9
17394,11.4
17395,-4.7
17397,16.7
17398,29.0
17402,5.7
17403,14.4
17405,4.2
17407,25.0
17408,-20.1
17410,28.5
17412,24.7
17413,10.3
17414,20.9
17416,24.7
17417,14.5
17418,9.7
17421,26.2
17422,23.8
17425,21.3
17429,29.9
17432,11.5
17434,8.2
17435,3.1
17436,3.5
17437,5.8
17438,14.2
17439,19.6
17442,30.3
17443,20.7
17445,-2.1
17447,5.7
17449,23.4
17452,16.8
17454,19.5
17457,23.2
17458,39.1
17463,25.6
17464,22.4
17470,10.8
17472,30.3
17473,6.5
17474,12.8
17478,11.9
17480,12.5
17481,4.2
17482,15.9
17485,23.0
17486,17.0
17490,10.9
17491,23.0
17493,14.3
17495,-4.7
17498,6.4
17499,3.7
17501,20.0
17502,13.9
17505,3.5
17508,-20.1
17509,15.9
17511,20.2
17517,3.9
17518,26.7
17519,24.2
17520,15.3
17521,23.6
17524,4.0
17525,13.7
17529,19.0
17531,21.1
17533,5.6
17534,19.1
17538,16.7
17539,15.1
17540,19.7
17542,29.4
17545,-2.1
17548,11.8
17553,22.0
17554,14.1
17555,22.7
17556,6.1
17557,36.5
17561,25.3
17562,19.2
17564,24.9
17565,21.6
17566,24.6
17567,28.9
17569,14.9
17570,13.3
17571,14.3
17575,10.0
17578,31.0
17581,25.1
17583,13.3
17584,16.6
17586,9.7
17591,27.6
17592,25.3
17594,22.7
17595,-4.7
17596,19.6
17598,4.3
17600,4.6
17601,6.6
17602,18.0
17606,9.0
17607,-20.1
17610,24.8
17616,30.1
17617,9.5
17618,12.7
17619,6.0
17620,23.6
17621,8.4
17624,3.2
17625,10.6
17626,4.3
17627,16.1
17630,27.0
17631,7.6
17634,3.0
17638,20.8
17639,30.3
17640,9.3
17641,14.3
17643,21.8
17645,-4.7
17647,9.3
17649,16.4
17653,24.6
17654,18.9
17657,39.1
17658,15.4
17659,26.0
17660,4.8
17661,22.4
17662,17.6
17663,3.6
17668,22.7
17670,13.3
17671,26.9
17674,28.0
17678,3.3
17680,4.4
17681,15.8
17682,13.3
17683,23.2
17688,25.5
17690,24.7
17692,15.2
17694,0.5
17698,13.2
17702,25.8
17705,13.9
17707,-15.0
17710,3.7
17713,7.9
17715,26.8
17717,8.1
17719,30.8
17720,28.8
17722,14.6
17727,28.1
17728,16.2
17729,19.6
17730,10.4
17731,24.8
17732,10.8
17735,4.9
17737,27.8
17739,27.2
17742,17.6
17744,-4.7
17746,15.0
17747,19.3
17750,5.5
17753,6.5
17755,6.6
17756,8.5
17757,39.1
17759,25.5
17760,5.1
17761,20.5
17762,7.7
17770,15.9
17771,27.3
17773,25.5
17776,5.3
17777,6.0
17778,16.7
17781,21.0
17782,10.8
17783,18.9
17787,30.4
17792,26.6
17793,25.7
17795,8.2
17797,27.2
17800,14.0
17802,24.2
17803,11.9
17804,30.0
17805,20.6
17806,-17.5
17807,10.6
17808,28.6
17809,22.6
17811,8.1
17812,22.2
17813,11.9
17818,11.0
17819,26.2
17825,5.1
17827,17.6
17828,25.3
17829,22.3
17831,21.6
17832,8.2
17833,24.4
17834,22.5
17835,5.4
17837,13.7
17838,15.6
17839,17.3
17840,3.5
17841,12.5
17842,4.6
17843,18.5
17844,0.5
17845,21.1
17846,18.1
17847,22.3
17853,9.1
17854,26.5
17855,21.0
17856,23.2
17857,17.4
17858,24.8
17860,18.0
17861,28.1
17862,27.1
17863,29.3
17866,10.3
17867,-17.5
17868,21.8
17870,7.6
17871,29.5
17874,10.3
17880,17.6
17881,18.5
17888,8.6
17893,-2.1
17894,12.1
17895,30.3
17898,28.2
17899,6.1
17903,15.4
17906,-20.1
17908,18.2
17909,28.5
17910,3.3
17913,3.0
17914,16.5
17915,24.8
17917,28.8
17919,16.1
17920,26.2
17921,16.5
17924,23.5
17925,3.3
17926,14.8
17927,21.6
17928,15.2
17929,30.2
17930,9.6
17931,16.0
17932,8.2
17933,7.0
17934,19.9
17937,3.1
17938,14.8
17940,16.5
17941,26.5
17943,-2.1
17946,20.8
17947,8.2
17949,5.6
17951,7.1
17953,10.9
17955,36.5
17958,17.7
17959,17.5
17960,18.7
17965,21.4
17967,5.9
17969,10.8
17970,13.9
17971,19.1
17974,4.3
17976,27.8
17977,21.8
17978,13.8
17980,11.3
17981,15.9
17986,12.2
17988,14.2
17993,-4.7
17995,20.2
17999,16.1
18000,6.1
18006,-20.1
18010,20.2
18011,14.2
18014,12.0
18016,28.4
18017,24.1
18018,20.1
18019,26.2
18020,3.6
18021,25.0
18022,10.0
18026,25.3
18028,3.9
18029,18.8
18030,22.9
18031,16.6
18032,3.0
18033,3.4
18042,11.4
18043,-4.7
18044,12.4
18045,21.5
18048,6.2
18050,29.9
18052,15.6
18055,4.5
18056,36.5
18060,18.5
18063,23.6
18066,13.5
18067,19.1
18068,13.3
18069,8.3
18070,30.8
18073,7.0
18074,14.0
18075,29.7
18077,15.9
18078,7.9
18080,13.3
18081,29.9
18082,28.8
18085,4.9
18086,10.0
18089,28.2
18092,23.4
18093,-7.2
18096,24.9
18097,12.5
18101,7.8
18102,25.3
18103,6.9
18106,-20.1
18108,6.2
18109,19.0
18111,29.0
18112,3.7
18114,22.8
18118,15.8
18119,23.6
18122,25.2
18124,17.4
18126,7.0
18128,26.6
18131,3.0
18132,19.9
18133,8.6
18136,30.8
18137,18.3
18139,24.2
18140,26.2
18143,-2.1
18144,8.4
18146,26.5
18148,20.9
18149,3.1
18152,13.1
18155,36.5
18159,9.7
18160,25.5
18167,26.8
18168,13.3
18169,16.4
18172,12.5
18175,10.1
18176,19.1
18181,13.3
18182,24.6
18183,22.8
18185,6.4
18190,27.5
18191,23.6
18193,-2.1
18198,11.5
18199,28.4
18200,24.4
18201,7.2
18205,-22.7
18209,18.2
18214,8.3
18217,19.0
18219,21.0
18220,13.3
18222,29.6
18223,19.3
18226,16.5
18228,19.2
18231,29.1
18232,0.5
18235,12.5
18236,24.2
18237,19.9
18238,5.8
18241,29.0
18243,-4.7
18244,5.3
18246,16.6
18249,3.8
18251,3.9
18252,14.5
18253,15.7
18254,4.6
18255,39.1
18267,19.0
18268,13.3
18270,5.1
18274,10.1
18277,29.1
18279,13.7
18280,13.3
18282,12.2
18283,30.0
18285,10.1
18287,25.7
18288,24.3
18292,5.6
18296,20.7
18298,19.5
18299,8.8
18302,15.6
18304,18.6
18305,-17.5
18306,6.2
18308,18.6
18311,24.4
18312,14.3
18313,16.0
18318,28.8
18320,21.7
18324,27.0
18325,3.3
18326,10.8
18327,11.7
18330,5.6
18336,29.4
18337,21.4
18339,23.0
18341,0.5
18343,19.4
18344,23.0
18351,21.9
18353,18.5
18354,21.7
18355,9.5
18357,5.2
18358,24.4
18360,24.3
18361,4.2
18363,9.3
18366,-22.7
18375,10.4
18376,25.2
18378,24.0
18379,18.5
18389,23.2
18390,15.6
18391,28.5
18392,-2.1
18394,30.5
18400,28.1
18402,10.4
18404,-17.5
18406,27.3
18412,6.3
18413,3.0
18417,28.8
18419,18.2
18420,28.1
18426,27.0
18427,19.4
18430,8.2
18436,22.6
18442,0.5
18443,30.5
18445,23.3
18449,9.1
18450,6.3
18451,5.6
18453,23.6
18454,12.6
18455,3.5
18461,12.5
18465,-15.0
18474,11.1
18475,16.5
18478,15.7
18479,15.9
18480,24.8
18481,19.3
18485,29.3
18487,25.9
18488,23.1
18489,11.4
18491,-4.7
18493,16.4
18495,26.3
18496,5.9
18497,4.4
18501,29.7
18504,-20.1
18505,19.1
18507,14.0
18508,27.7
18514,13.1
18516,21.9
18517,12.8
18518,26.2
18520,12.6
18521,7.2
18526,18.8
18528,15.8
18529,7.7
18530,5.6
18539,22.1
18541,-2.1
18547,8.9
18548,17.2
18550,10.5
18553,39.1
18554,30.7
18560,3.7
18562,8.7
18567,8.2
18572,3.3
18574,17.2
18576,29.8
18578,23.6
18579,13.6
18586,27.0
18588,23.8
18590,0.5
18591,3.3
18593,15.1
18595,23.3
18597,23.4
18598,8.1
18601,-4.7
18603,27.2
18605,21.2
18608,27.2
18611,4.9
18613,17.5
18614,39.1
18617,29.1
18618,24.9
18619,16.3
18620,20.5
18621,27.1
18622,27.7
18626,13.3
18627,27.9
18628,15.3
18630,13.5
18634,4.1
18637,21.3
18639,13.3
18643,18.9
18644,28.0
18646,14.4
18650,13.5
18652,5.6
18655,16.9
18656,19.5
18660,27.6
18663,-15.0
18664,25.6
18665,28.8
18668,5.0
18671,25.0
18672,4.5
18673,15.3
18675,9.7
18676,28.8
18678,13.0
18680,6.6
18684,19.7
18687,7.8
18689,8.2
18692,21.5
18694,3.9
18695,18.1
18696,28.2
18697,28.7
18698,11.0
18699,7.6
18701,0.5
18702,8.4
18704,29.4
18707,9.8
18712,21.0
18713,25.1
18714,9.0
18715,19.5
18717,9.4
18718,10.8
18719,3.6
18722,14.2
18724,-20.1
18725,22.8
18726,3.8
18729,26.7
18730,29.5
18731,18.8
18733,30.3
18735,22.8
18736,22.0
18738,18.5
18739,3.1
18741,20.1
18750,-2.1
18751,21.3
18755,8.3
18757,15.3
18758,27.6
18759,12.0
18761,6.9
18762,11.6
18763,-17.5
18766,6.8
18770,12.6
18771,16.5
18772,26.4
18773,3.9
18777,28.8
18779,13.7
18783,29.3
18786,10.1
18789,8.2
18796,27.8
18798,18.6
18799,11.0
18800,0.5
18802,16.4
18805,29.5
18811,23.6
18812,9.9
18815,6.3
18818,19.2
18819,24.1
18820,25.4
18822,24.9
18824,-15.0
18825,10.2
18826,13.1
18831,30.0
18834,28.3
18835,17.8
18837,3.2
18838,15.9
18840,9.9
18842,15.4
18843,24.3
18844,11.5
18845,6.7
18847,12.3
18848,3.8
18850,-4.7
18852,18.6
18853,30.2
18854,14.9
18856,17.8
18857,29.9
18858,18.2
18861,3.8
18862,8.1
18863,-20.1
18864,9.4
18866,19.5
18870,6.6
18873,6.4
18874,27.9
18876,26.2
18877,28.7
18879,4.0
18880,28.2
18882,20.4
18884,23.1
18885,12.1
18886,14.2
18887,14.6
18888,5.6
18895,8.8
18896,19.6
18897,19.1
18900,-2.1
18907,6.7
18909,25.7
18911,18.8
18913,39.1
18914,24.7
18916,7.5
18917,27.8
18921,16.9
18922,26.1
18925,10.8
18928,22.6
18932,10.0
18936,7.4
18937,15.9
18938,11.7
18939,13.1
18942,14.4
18943,19.1
18946,6.2
18948,28.6
18949,19.2
18950,-4.7
18953,11.7
18954,6.2
18955,3.2
18956,8.5
18957,8.1
18961,18.6
18962,3.2
18963,-20.1
18965,3.1
18966,12.1
18968,22.6
18971,8.0
18974,16.7
18975,12.5
18976,26.2
18977,5.2
18978,29.3
18979,7.1
18981,7.5
18982,22.7
18987,24.1
18989,3.0
18992,5.3
18994,27.8
18999,13.1
19000,-4.7
19001,13.3
19002,10.6
19004,14.2
19005,17.8
19011,20.3
19012,39.1
19013,21.4
19015,22.5
19019,4.6
19020,27.9
19022,14.4
19024,13.3
19027,6.7
19029,16.1
19030,21.2
19032,3.5
19033,5.7
19036,7.8
19037,22.1
19038,13.3
19041,19.0
19044,10.1
19045,7.8
19046,4.4
19049,27.3
19050,-7.2
19054,14.2
19055,16.5
19056,28.4
19057,12.6
19058,23.6
19059,29.1
19062,-20.1
19064,25.5
19066,8.6
19068,19.0
19070,13.4
19071,29.7
19072,7.0
19074,9.7
19076,23.6
19077,18.6
19081,14.1
19083,22.8
19084,3.3
19085,4.4
19088,5.6
19090,5.5
19091,10.3
19099,15.5
19100,-4.7
19103,19.6
19107,9.4
19109,14.2
19112,39.1
19114,5.1
19116,23.8
19117,17.9
19119,17.0
19122,5.8
19123,20.8
19125,15.9
19126,3.2
19127,13.2
19129,23.2
19130,18.8
19133,16.9
19134,30.5
19135,30.3
19137,13.3
19138,21.7
19141,3.8
19142,6.6
19146,5.1
19147,6.7
19148,6.3
19149,0.5
19151,18.7
19152,18.4
19155,23.2
19158,6.5
19159,9.4
19162,-15.0
19163,7.2
19166,18.8
19167,26.6
19168,26.3
19169,19.1
19170,26.8
19174,24.1
19175,28.8
19176,19.4
19177,17.2
19178,19.6
19181,5.9
19184,18.0
19186,29.3
19187,8.2
19190,28.4
19191,28.6
19195,25.7
19197,5.2
19198,3.0
19200,26.6
19201,25.5
19203,21.1
19206,5.3
19208,19.8
19209,30.3
19210,18.5
19212,28.3
19217,16.1
19222,-25.3
19225,26.3
19229,15.9
19233,22.5
19234,6.1
19235,25.2
19236,18.5
19237,11.7
19238,8.1
19239,18.7
19242,16.1
19243,9.7
19246,14.5
19248,13.8
19249,-2.1
19250,12.7
19251,5.2
19252,28.9
19254,9.7
19255,5.0
19258,11.4
19259,19.1
19261,-15.0
19262,30.3
19265,25.2
19267,16.2
19268,15.6
19270,24.3
19272,21.1
19274,28.8
19276,22.8
19279,15.9
19281,7.8
19286,24.0
19287,8.2
19289,11.3
19291,20.8
19293,8.5
19294,27.7
19296,27.1
19297,20.4
19298,15.9
19299,0.5
19303,16.9
19306,19.9
19308,27.3
19310,21.0
19311,13.1
19313,6.1
19314,28.3
19315,24.1
19319,26.8
19321,9.2
19322,-17.5
19325,17.5
19329,21.9
19331,4.2
19334,7.4
19336,18.5
19337,28.6
19340,4.3
19341,25.6
19345,10.6
19346,18.0
19348,-4.7
19350,3.5
19351,11.3
19352,11.2
19353,19.3
19355,14.7
19356,4.4
19360,3.9
19361,-17.5
19362,4.4
19363,11.0
19365,19.8
19366,14.7
19369,12.9
19375,26.2
19377,9.4
19378,14.6
19380,11.1
19385,7.7
19387,8.2
19388,13.7
19392,24.8
19393,22.4
19398,-2.1
19400,6.9
19404,13.2
19409,19.6
19410,39.1
19414,28.8
19418,9.2
19420,24.9
19421,9.5
19423,8.2
19424,19.7
19429,5.4
19431,29.8
19433,28.8
19434,20.6
19435,23.6
19436,4.6
19437,5.8
19440,12.3
19445,16.1
19446,6.0
19447,3.0
19448,22.9
19450,24.1
19454,8.2
19459,-4.7
19461,8.1
19462,11.7
19463,4.8
19465,16.8
19471,39.1
19472,27.3
19476,14.8
19479,30.2
19483,15.9
19486,3.4
19487,3.3
19489,4.8
19492,10.4
19494,28.7
19495,25.3
19496,13.3
19497,9.1
19498,12.2
19506,17.8
19508,23.6
19509,3.0
19513,15.6
19515,11.6
19516,7.4
19520,-15.0
19523,18.1
19524,9.8
19526,25.2
19528,24.3
19531,24.3
19533,28.8
19537,20.3
19541,22.2
19543,28.5
19545,16.5
19546,8.2
19547,16.3
19548,29.2
19550,30.5
19553,10.0
19555,19.7
19556,25.1
19557,0.5
19559,7.7
19566,24.5
19568,7.6
19569,18.5
19571,11.4
19572,23.4
19573,9.6
19580,12.1
19581,-22.7
19583,4.2
19585,8.7
19586,19.9
19587,3.4
19588,4.1
19590,30.2
19592,4.6
19593,11.4
19595,15.9
19597,15.7
19601,4.9
19602,26.5
19603,11.7
19605,7.1
19607,-2.1
19608,17.1
19610,10.0
19611,23.7
19613,12.1
19615,10.3
19616,29.3
19618,23.0
19619,-17.5
19622,11.0
19624,21.0
19625,6.5
19626,20.3
19627,19.8
19630,23.3
19631,24.0
19633,23.6
19634,28.8
19635,15.4
19636,13.2
19639,27.2
19640,29.5
19643,9.3
19644,8.5
19645,29.8
19646,8.2
19652,22.1
19654,14.2
19656,3.5
19657,0.5
19659,11.9
19661,8.9
19664,24.8
19665,19.5
19668,21.0
19670,8.1
19672,30.8
19674,12.7
19675,17.4
19676,18.6
19677,9.2
19680,15.8
19681,-17.5
19682,9.9
19683,25.3
19685,17.3
19690,28.0
19691,9.9
19692,29.2
19693,9.5
19694,12.5
19695,15.9
19697,20.6
19698,26.5
19702,8.8
19705,8.1
19706,9.4
19707,-4.7
19710,11.7
19711,26.7
19712,7.3
19714,24.2
19715,29.1
19717,3.6
19718,19.0
19720,-17.5
19721,13.5
19722,23.0
19724,15.8
19726,4.5
19728,9.4
19731,4.3
19733,28.8
19734,28.6
19735,14.2
19736,6.5
19739,26.0
19740,12.1
19741,25.9
19742,16.6
19743,5.5
19744,29.5
19745,8.2
19746,12.1
19747,27.1
19750,4.5
19752,19.5
19753,30.1
19755,20.8
19756,22.6
19757,0.5
19759,10.7
19767,7.3
19769,26.2
19772,21.1
19775,22.2
19776,11.4
19779,12.5
19780,11.6
19781,-12.4
19782,5.2
19787,20.4
19789,13.4
19790,13.4
19791,5.5
19792,12.0
19794,15.9
19795,17.3
19797,25.8
19799,29.4
19800,24.6
19802,5.1
19803,5.6
19806,10.0
19807,-7.2
19810,30.4
19812,30.3
19813,12.7
19814,3.6
19816,23.0
19818,9.2
19819,-17.5
19820,22.3
19821,20.1
19823,10.1
19825,24.3
19829,4.9
19830,23.0
19832,16.2
19833,26.2
19834,12.3
19838,16.9
19842,24.2
19844,13.0
19845,29.6
19846,3.0
19847,28.0
19849,14.0
19853,25.3
19857,-2.1
19861,7.9
19862,17.4
19865,21.2
19867,30.5
19868,14.5
19869,36.5
19871,3.5
19873,24.9
19875,6.4
19876,14.5
19877,26.7
19878,5.1
19880,21.7
19881,13.3
19883,18.0
19884,13.2
19886,29.6
19889,15.1
19895,13.3
19903,11.8
19904,3.3
19907,-7.2
19908,24.8
19910,15.8
19911,29.3
19915,11.8
19916,11.1
19917,4.5
19918,20.0
19919,-20.1
19920,21.5
19922,17.0
19924,13.0
19925,21.3
19927,19.7
19930,15.9
19931,5.2
19932,8.3
19933,23.6
19935,9.0
19936,30.0
19938,3.7
19940,29.1
19942,4.2
19943,24.4
19944,4.1
19945,5.6
19948,4.2
19949,28.7
19951,24.4
19953,14.7
19956,-2.1
19957,5.7
19959,4.4
19961,9.1
19962,7.2
19963,26.3
19964,17.7
19965,18.6
19966,18.1
19967,8.8
19968,10.9
19969,30.3
19970,39.1
19972,13.9
19976,6.2
19982,13.3
19983,29.3
19987,18.5
19989,6.2
19990,30.1
19991,16.2
19992,18.0
19994,13.3
19995,12.9
19996,17.8
19998,22.2
20000,29.1
20004,29.1
20005,4.3
20006,-2.1
20007,12.8
20008,4.0
20010,19.6
20011,12.4
20015,14.2
20017,18.6
20019,-20.1
20020,24.2
20022,13.6
20028,7.9
20029,4.0
20030,16.4
20031,7.4
20033,23.6
20036,16.7
20037,26.1
20040,23.3
20041,30.5
20042,6.1
20044,21.7
20045,3.0
20047,27.2
20049,15.5
20051,20.7
20053,15.8
20054,12.8
20056,10.9
20057,-4.7
20059,16.1
20067,9.3
20068,23.3
20069,39.1
20074,24.9
20077,29.9
20079,9.2
20080,24.5
20081,15.9
20083,19.9
20084,29.7
20087,17.6
20088,19.8
20090,20.6
20092,19.0
20093,5.9
20094,13.3
20095,10.1
20096,30.4
20099,20.0
20102,8.7
20106,15.9
20107,5.6
20108,5.2
20109,13.9
20112,10.4
20113,4.0
20114,15.2
20116,17.8
20117,23.3
20118,-15.0
20119,15.6
20123,4.9
20127,18.7
20128,24.4
20129,28.0
20131,26.2
20136,5.4
20138,11.5
20140,15.1
20144,8.2
20147,12.8
20150,20.0
20155,0.5
20157,13.2
20161,14.3
20163,30.9
20165,10.0
20167,18.5
20169,24.0
20170,17.1
20173,28.7
20176,21.4
20177,8.9
20179,-20.1
20181,29.1
20185,3.5
20186,3.9
20191,12.8
20193,18.5
20195,26.4
20196,12.7
20197,12.3
20198,25.1
20200,9.7
20201,16.2
20204,16.4
20205,-2.1
20211,25.2
20215,3.5
20217,-17.5
20220,8.6
20223,13.6
20225,22.3
20226,16.5
20227,19.6
20230,7.5
20231,14.6
20232,28.8
20233,13.4
20234,18.3
20238,21.9
20240,3.4
20244,8.2
20245,5.9
20246,10.4
20249,4.6
20251,29.7
20254,29.7
20255,-2.1
20258,11.1
20260,12.0
20262,21.4
20263,30.9
20266,11.3
20268,36.5
20269,30.8
20270,17.2
20271,23.8
20272,4.0
20275,18.8
20276,28.7
20277,26.6
20279,18.9
20280,8.2
20281,16.9
20283,20.7
20284,9.6
20286,17.3
20287,6.8
20289,13.6
20291,23.6
20292,14.0
20293,3.4
20297,25.4
20299,24.6
20300,10.0
20302,9.2
20303,21.8
20304,3.0
20305,3.8
20308,19.2
20311,11.1
20313,11.8
20314,20.2
20315,20.3
20316,-4.7
20318,9.3
20322,3.5
20323,22.4
20325,23.0
20326,6.0
20327,30.8
20328,39.1
20330,18.9
20333,21.0
20335,11.8
20336,10.6
20337,24.1
20338,7.3
20339,20.3
20340,15.9
20342,22.4
20346,13.1
20348,17.6
20349,25.4
20353,13.3
20356,7.4
20358,12.4
20361,15.7
20362,12.2
20364,14.3
20366,-2.1
20367,3.1
20368,6.6
20370,4.0
20371,9.3
20374,29.7
20378,-22.7
20379,4.1
20381,13.7
20382,16.1
20384,26.9
20385,30.3
20386,5.9
20388,13.1
20389,21.5
20391,21.0
20393,17.5
20395,23.6
20398,26.1
20400,5.9
20401,17.5
20402,20.6
20403,24.6
20404,3.0
20405,17.2
20409,28.4
20410,12.4
20411,14.6
20412,15.1
20415,-4.7
20419,22.9
20420,25.4
20421,26.8
20423,9.1
20424,6.6
20426,17.8
20427,11.2
20428,39.1
20429,10.7
20430,20.8
20431,3.9
20435,18.6
20436,25.4
20437,14.7
20440,12.1
20441,13.3
20443,16.3
20444,20.1
20448,26.2
20450,25.7
20452,27.0
20453,13.3
20455,10.9
20458,11.5
20459,3.4
20461,7.5
20465,5.6
20467,30.4
20468,22.4
20472,7.2
20476,-15.0
20478,18.0
20479,26.4
20480,8.4
20482,5.0
20485,27.3
20486,9.6
20490,28.8
20491,5.2
20492,13.3
20497,9.3
20503,8.2
20504,5.1
20505,26.4
20511,6.1
20514,-2.1
20517,17.9
20521,22.5
20522,13.6
20527,36.5
20528,13.7
20529,19.4
20530,6.4
20531,10.4
20532,6.4
20534,24.3
20537,21.7
20539,5.6
20540,14.4
20541,13.7
20542,3.7
20544,15.7
20546,24.9
20547,5.6
20548,17.0
20550,26.2
20551,26.3
20552,6.5
20555,5.9
20556,19.2
20557,25.4
20558,6.5
20559,11.8
20560,29.5
20562,29.8
20563,5.6
20565,21.9
20569,7.0
20571,11.5
20573,16.6
20574,18.7
20575,-2.1
20581,21.7
20582,8.9
20583,4.8
20585,4.3
20587,36.5
20588,10.3
20589,10.9
20590,8.5
20594,5.0
20595,5.9
20598,29.4
20599,10.8
20601,31.0
20608,18.7
20612,13.3
20613,5.9
20614,3.3
20616,30.5
20617,28.8
20620,22.5
20624,9.5
20625,-7.2
20626,11.8
20628,6.2
20629,27.5
20630,21.7
20633,11.7
20636,15.6
20637,-20.1
20638,17.1
20639,14.6
20641,19.0
20642,10.7
20644,4.3
20647,31.0
20649,13.8
20651,23.6
20655,5.8
20657,21.5
20658,17.1
20659,17.7
20663,3.0
20664,4.9
20666,8.5
20667,10.4
20669,25.6
20670,24.4
20672,13.9
20673,11.8
20674,-4.7
20682,6.5
20683,24.4
20684,15.8
20685,21.5
20686,39.1
20687,16.2
20688,10.5
20689,4.5
20694,23.3
20695,3.8
20696,9.0
20697,30.8
20699,15.6
20700,13.3
20707,10.2
20709,20.6
20711,20.2
20712,13.3
20716,30.1
20718,15.6
20719,19.9
20721,9.4
20722,20.0
20724,0.5
20725,22.8
20726,14.0
20729,30.2
20730,20.2
20731,5.5
20733,25.8
20734,14.3
20735,11.4
20736,-17.5
20737,3.1
20739,13.8
20743,9.3
20744,14.9
20747,25.7
20749,28.8
20753,12.8
20756,29.3
20757,22.7
20758,18.6
20760,12.7
20762,10.8
20763,28.9
20764,14.1
20766,5.5
20767,26.4
20770,5.3
20771,30.9
20772,19.9
20774,-7.2
20775,21.0
20776,11.3
20779,25.0
20784,7.6
20786,9.3
20787,39.1
20791,4.0
20795,29.1
20796,3.6
20797,10.9
20799,15.9
20803,11.1
20808,17.6
20810,16.0
20811,13.3
20814,11.4
20815,18.7
20817,24.7
20819,20.8
20822,25.9
20823,19.5
20824,17.2
20825,8.2
20826,17.5
20829,16.1
20830,28.1
20832,9.9
20836,-17.5
20837,25.6
20838,3.7
20839,4.5
20840,28.0
20841,25.3
20842,3.1
20843,5.0
20844,16.6
20848,29.8
20849,28.8
20850,27.1
20852,21.3
20853,11.8
20854,28.4
20855,19.7
20857,25.7
20858,25.8
20859,29.2
20860,15.4
20861,5.6
20866,5.9
20869,29.1
20870,5.1
20871,6.0
20872,22.7
20873,0.5
20874,14.8
20876,4.5
20877,4.0
20879,20.3
20880,7.8
20883,5.6
20884,21.0
20885,11.0
20886,5.4
20887,30.2
20889,13.0
20890,26.8
20895,14.8
20897,-20.1
20898,10.8
20901,9.5
20902,21.6
20907,17.5
20910,21.6
20911,18.5
20912,23.5
20914,30.6
20915,28.9
20917,13.5
20923,-2.1
20924,7.5
20931,18.9
20933,6.0
20934,24.7
20935,-17.5
20942,3.7
20943,8.9
20944,9.6
20947,9.8
20948,26.2
20949,3.0
20950,29.2
20954,4.6
20956,20.3
20958,25.3
20959,19.3
20962,8.2
20968,13.8
20970,14.3
20972,12.7
20973,-2.1
20974,23.1
20975,23.1
20982,29.8
20984,20.2
20985,36.5
20986,21.1
20990,15.8
20993,5.9
20994,15.7
20998,8.2
20999,29.9
21000,27.3
21001,24.4
21002,22.4
21005,7.3
21007,17.2
21008,23.1
21009,23.6
21013,7.3
21018,28.7
21020,25.2
21021,0.5
21023,25.7
21024,26.0
21025,26.7
21026,13.5
21028,12.2
21029,21.5
21030,26.4
21031,7.3
21033,-4.7
21035,16.4
21036,25.7
21037,18.5
21040,21.6
21042,10.3
21046,39.1
21051,5.2
21052,28.9
21054,9.8
21055,19.1
21057,25.1
21058,13.3
21059,28.0
21061,16.5
21064,20.1
21066,15.3
21067,3.9
21068,3.2
21070,10.8
21071,13.2
21072,21.0
21075,16.4
21078,9.4
21079,11.9
21080,20.0
21081,6.3
21083,0.5
21084,23.1
21085,13.9
21086,12.5
21087,14.0
21090,25.7
21095,-15.0
21097,18.6
21098,8.3
21104,27.6
21106,24.0
21107,14.0
21108,28.8
21112,14.2
21117,25.9
21118,18.0
21119,19.7
21121,10.8
21124,3.4
21127,29.3
21130,21.6
21131,20.6
21132,12.2
21133,-7.2
21134,16.6
21135,26.7
21137,9.5
21139,23.1
21140,10.0
21141,6.7
21142,22.5
21145,36.5
21147,30.5
21149,23.3
21150,30.6
21152,14.1
21155,23.9
21158,15.9
21160,30.0
21164,13.1
21165,6.5
21168,26.3
21169,21.2
21171,13.3
21172,12.2
21173,20.4
21177,7.9
21178,30.6
21181,3.2
21182,21.7
21183,8.2
21185,24.9
21186,25.3
21187,6.1
21189,24.6
21190,4.6
21194,-17.5
21195,25.9
21196,14.9
21198,14.6
21201,26.7
21208,28.8
21212,15.9
21217,18.7
21220,8.2
21221,25.1
21225,30.1
21227,23.9
21228,20.6
21232,0.5
21236,5.3
21239,29.5
21241,27.0
21243,23.6
21246,3.0
21249,21.8
21252,18.6
21253,6.9
21256,-20.1
21257,24.4
21261,17.9
21262,11.5
21263,30.2
21265,26.3
21266,20.5
21268,24.4
21269,15.9
21274,22.2
21276,27.9
21281,-4.7
21284,22.8
21286,18.7
21295,-17.5
21296,14.3
21304,6.6
21305,21.9
21306,9.1
21308,26.2
21310,4.7
21311,21.6
21312,17.8
21313,16.8
21314,27.9
21319,30.4
21320,8.2
21323,29.6
21325,9.9
21326,30.8
21327,27.0
21329,29.3
21331,-2.1
21332,30.1
21344,36.5
21345,23.3
21347,5.0
21350,6.9
21351,30.7
21354,24.6
21356,17.8
21357,8.2
21362,6.8
21365,6.9
21366,14.5
21368,23.6
21369,24.0
21376,17.7
21377,30.6
21378,26.0
21380,6.4
21381,3.0
21384,13.8
21386,20.9
21388,20.6
21391,23.1
21392,-4.7
21393,26.2
21394,7.4
21396,14.6
21399,24.4
21403,22.3
21404,39.1
21407,15.2
21409,9.7
21411,17.2
21412,11.9
21413,20.5
21414,19.5
21416,13.3
21418,14.6
21429,15.9
21430,13.3
21431,10.7
21432,26.4
21433,7.1
21435,24.9
21436,21.7
21438,23.0
21440,23.6
21441,21.4
21442,3.0
21444,30.4
21445,6.9
21448,28.2
21451,7.2
21452,27.8
21453,-15.0
21457,25.5
21458,25.5
21460,28.5
21461,7.9
21463,27.9
21464,9.7
21466,19.3
21467,28.8
21468,19.9
21469,20.5
21470,12.0
21474,27.1
21476,29.2
21477,11.8
21479,8.2
21481,28.4
21483,14.6
21485,10.2
21487,11.4
21488,17.6
21489,24.3
21491,0.5
21492,10.0
21493,28.8
21494,20.6
21495,24.5
21498,23.4
21499,15.2
21502,18.5
21503,6.2
21507,30.2
21508,6.3
21509,11.7
21510,30.2
21511,9.2
21512,14.9
21514,3.7
21515,-25.3
21516,22.8
21517,3.7
21518,18.7
21519,16.4
21520,26.5
21521,11.9
21523,12.7
21524,21.9
21526,24.9
21528,18.5
21529,4.6
21530,20.9
21531,13.9
21536,27.9
21538,24.8
21540,0.5
21541,17.9
21545,29.0
21548,4.5
21552,-9.8
21559,28.8
21560,19.2
21563,22.3
21564,3.4
21565,39.1
21567,23.4
21571,29.7
21572,29.7
21574,16.1
21575,6.3
21576,8.0
21577,15.9
21578,23.3
21581,14.1
21582,23.3
21586,9.1
21588,8.3
21590,8.2
21592,17.2
21593,5.0
21596,25.3
21599,7.9
21600,11.9
21601,-7.2
21605,21.4
21607,19.5
21608,29.6
21611,16.1
21612,9.4
21613,-22.7
21616,15.8
21619,28.7
21621,19.0
21626,19.8
21627,23.6
21629,13.1
21633,16.7
21634,19.2
21636,24.4
21637,4.9
21639,29.9
21640,5.6
21642,25.9
21644,10.1
21645,15.6
21646,22.1
21648,5.1
21651,-4.7
21652,16.4
21654,9.1
21656,14.0
21657,28.8
21658,3.3
21659,22.9
21660,14.9
21661,29.9
21663,39.1
21666,14.0
21674,21.3
21676,13.3
21677,27.2
21678,5.9
21683,7.5
21684,29.5
21687,11.2
21688,13.3
21689,26.8
21690,8.7
21692,3.9
21694,3.4
21695,4.2
21696,14.1
21697,10.0
21699,23.8
21701,-4.7
21703,17.2
21704,7.1
21705,30.0
21706,20.6
21712,30.8
21713,-22.7
21714,18.6
21717,17.3
21722,9.2
21723,28.5
21725,27.2
21726,25.4
21727,21.0
21728,4.1
21733,16.2
21734,23.1
21735,17.7
21738,5.3
21739,3.0
21741,20.8
21744,9.4
21746,14.9
21749,12.9
21750,-4.7
21753,28.8
21755,18.3
21756,7.2
21760,3.1
21761,6.7
21764,39.1
21765,4.8
21769,15.6
21771,3.6
21773,11.3
21774,18.3
21776,13.3
21777,10.1
21778,21.9
21780,15.2
21781,23.1
21783,16.7
21784,22.5
21785,24.3
21786,8.9
21788,13.3
21789,14.1
21790,4.9
21796,20.5
21800,3.0
21801,23.5
21804,12.9
21806,5.6
21808,22.9
21812,-15.0
21819,3.5
21820,13.2
21823,5.3
21824,17.4
21825,20.3
21826,28.8
21827,22.3
21828,24.5
21829,22.9
21830,6.6
21831,27.6
21833,8.8
21834,4.3
21836,8.9
21838,8.2
21839,3.3
21840,15.7
21842,6.6
21845,12.0
21846,7.3
21847,21.3
21850,0.5
21851,9.5
21852,22.8
21857,8.3
21860,10.6
21861,18.5
21863,7.0
21864,25.9
21865,10.7
21870,30.9
21873,-22.7
21875,12.3
21879,8.7
21884,6.2
21885,15.2
21886,18.5
21888,19.0
21891,26.8
21892,18.7
21893,27.2
21898,6.1
21899,14.6
21900,-2.1
21904,14.1
21905,6.5
21910,26.5
21911,25.0
21912,-15.0
21913,20.1
21914,26.4
21916,16.2
21922,21.9
21925,28.8
21926,3.3
21928,8.8
21931,3.0
21937,13.5
21938,8.2
21940,28.5
21942,4.8
21943,3.5
21947,5.8
21949,0.5
21952,13.9
21955,19.2
21957,3.1
21958,22.2
21961,23.6
21963,11.0
21967,25.1
21968,12.3
21969,3.8
21970,12.2
21974,-17.5
21980,21.4
21981,16.7
21983,11.4
21986,19.2
21987,15.9
21989,14.6
21990,22.4
21992,17.4
21996,19.4
21997,11.3
21999,-4.7
22001,6.3
22003,3.2
22005,25.9
22008,21.3
22011,-17.5
22018,30.0
22021,14.4
22022,19.0
22024,22.7
22026,28.8
22030,5.8
22031,23.1
22032,8.5
22034,12.2
22035,7.5
22037,12.3
22038,5.6
22042,7.5
22043,9.8
22046,7.6
22049,-2.1
22050,21.5
22052,30.4
22056,29.2
22062,36.5
22064,12.1
22066,26.4
22067,8.4
22068,15.8
22070,15.5
22071,11.5
22072,12.8
22074,10.8
22075,10.6
22076,4.6
22078,22.6
22082,23.0
22084,16.9
22085,14.3
22086,15.9
22088,29.3
22089,23.9
22091,21.9
22093,19.7
22095,4.3
22099,-4.7
22100,6.0
22101,6.2
22102,12.2
22103,7.5
22104,12.1
22108,17.2
22110,15.2
22112,-20.1
22114,8.1
22122,15.5
22125,23.6
22126,18.2
22127,18.1
22129,14.3
22132,9.2
22134,30.5
22135,10.7
22136,19.5
22137,5.6
22141,30.1
22145,3.6
22148,28.4
22149,-2.1
22156,13.0
22157,28.3
22158,27.9
22159,17.2
22160,22.8
22162,39.1
22163,19.6
22170,6.3
22171,18.2
22172,4.9
22173,27.9
22174,13.3
22176,26.6
22178,26.2
22179,6.7
22183,20.1
22186,28.0
22187,15.9
22188,13.3
22190,22.7
22191,29.9
22194,24.5
22195,21.5
22199,-7.2
22201,13.2
22202,27.6
22206,4.3
22211,-20.1
22212,23.6
22214,12.9
22215,14.4
22217,12.0
22219,16.9
22220,20.0
22223,26.9
22224,6.0
22225,23.6
22228,8.3
22230,15.6
22232,19.6
22233,18.4
22235,3.5
22236,11.6
22237,12.3
22238,3.0
22243,14.5
22245,7.0
22246,27.5
22249,-2.1
22250,12.1
22251,27.3
22252,5.9
22257,30.9
22260,3.0
22261,39.1
22262,19.0
22265,28.0
22266,13.0
22269,17.9
22271,16.0
22274,15.9
22276,29.6
22278,25.3
22282,6.1
22285,12.8
22286,13.3
22288,29.0
22290,7.7
22291,6.3
22293,8.7
22294,13.6
22295,17.6
22299,-2.1
22306,24.8
22307,4.7
22309,28.6
22311,-22.7
22312,8.5
22313,15.8
22314,22.1
22320,5.0
22321,21.8
22322,20.8
22323,27.9
22324,19.4
22325,23.6
22327,23.2
22330,3.2
22332,30.7
22333,16.9
22336,13.9
22337,3.0
22338,6.0
22339,6.3
22343,9.9
22347,26.4
22348,-4.7
22351,19.9
22355,20.9
22357,19.2
22358,27.1
22360,19.6
22362,39.1
22364,16.1
22367,20.7
22368,29.0
22369,22.5
22374,15.9
22376,29.2
22378,28.5
22379,27.0
22382,9.2
22383,17.6
22384,16.6
22385,18.1
22386,13.3
22388,17.5
22389,12.9
22390,26.2
22392,17.4
22395,23.5
22397,30.0
22398,3.0
22401,18.7
22402,20.2
22403,14.1
22410,-17.5
22411,21.3
22415,18.3
22416,24.5
22417,24.7
22422,30.1
22424,26.2
22426,16.1
22427,22.5
22429,4.4
22432,28.5
22434,18.9
22435,21.1
22436,8.2
22437,16.2
22440,16.9
22441,11.0
22442,19.3
22443,20.1
22446,24.9
22447,23.4
22448,0.5
22449,26.1
22451,24.9
22454,11.8
22455,22.2
22456,21.0
22459,18.5
22462,10.1
22464,25.4
22465,10.8
22468,26.8
22470,4.2
22471,-22.7
22472,14.3
22473,28.4
22474,7.8
22475,14.9
22476,13.8
22477,24.6
22482,12.6
22483,21.3
22484,15.9
22487,11.3
22489,15.7
22490,12.9
22493,18.9
22495,22.3
22498,-2.1
22500,3.9
22501,25.4
22502,10.3
22505,12.5
22506,21.3
22507,17.4
22508,28.8
22509,17.4
22510,-17.5
22513,29.7
22514,20.8
22518,27.1
22519,23.7
22520,15.9
22523,26.2
22525,20.0
22526,24.9
22527,30.1
22528,13.2
22529,26.9
22530,15.6
22532,24.2
22533,28.8
22534,16.9
22536,8.2
22539,14.7
22541,30.6
22546,18.5
22547,0.5
22549,13.6
22551,17.7
22554,30.9
22557,9.1
22559,21.0
22563,11.6
22565,4.1
22567,26.5
22569,22.4
22572,-15.0
22573,4.6
22574,15.4
22575,21.8
22576,25.6
22577,26.5
22580,16.0
22583,13.9
22585,15.9
22588,27.6
22589,22.2
22594,27.1
22596,11.9
22597,-4.7
22599,3.7
22600,20.5
22603,16.8
22604,18.0
22606,13.9
22609,-20.1
22611,7.4
22612,8.3
22613,23.0
22616,17.0
22624,26.2
22625,10.9
22628,9.6
22629,8.3
22630,19.3
22635,19.9
22636,5.6
22640,6.6
22645,18.5
22647,-2.1
22648,22.1
22651,4.2
22653,8.2
22659,5.4
22660,36.5
22661,31.0
22662,6.9
22663,26.0
22664,25.4
22665,11.8
22667,7.4
22669,9.7
22670,22.4
22672,10.8
22673,22.9
22674,25.6
22678,11.0
22680,15.6
22682,10.3
22683,22.3
22684,15.9
22687,8.3
22688,30.1
22697,-7.2
22698,9.9
22699,16.5
22702,5.1
22703,14.9
22705,20.1
22708,27.8
22709,19.4
22710,-20.1
22712,22.9
22719,11.8
22720,12.7
22723,23.6
22727,15.6
22728,30.7
22729,28.6
22730,7.2
22733,4.1
22735,8.2
22736,6.2
22740,10.0
22742,8.4
22744,30.3
22745,10.4
22746,29.1
22747,-2.1
22750,13.1
22751,10.7
22756,16.2
22757,14.0
22760,36.5
22761,24.4
22762,6.0
22763,18.8
22768,29.0
22769,19.7
22772,10.8
22773,29.8
22775,7.1
22776,22.0
22778,24.2
22780,3.4
22782,14.7
22785,15.9
22787,3.8
22789,23.6
22791,5.9
22793,7.3
22796,27.3
22797,-4.7
22800,28.4
22802,18.1
22803,9.6
22806,22.9
22809,-22.7
22810,3.7
22812,13.8
22813,10.9
22816,18.6
22818,12.9
22819,21.8
22820,29.2
22821,13.4
22823,23.6
22825,12.1
22827,29.3
22828,19.3
22829,4.4
22830,30.1
22831,8.9
22836,3.0
22839,12.3
22840,3.2
22842,17.0
22843,24.5
22844,20.0
22846,21.8
22847,-4.7
22851,28.8
22854,9.1
22857,21.1
22859,36.5
22860,16.7
22864,27.0
22871,8.4
22872,13.3
22873,23.2
22878,4.7
22880,22.0
22882,14.5
22884,13.3
22886,3.8
22887,8.0
22891,23.8
22894,9.8
22895,18.8
22897,-2.1
22898,23.2
22900,30.5
22902,26.4
22903,29.5
22909,-22.7
22910,14.9
22914,29.0
22916,3.5
22917,29.5
22918,8.1
22921,4.7
22922,15.4
22923,23.6
22924,29.6
22929,21.9
22930,14.2
22931,15.8
22933,20.0
22934,15.1
22935,3.0
22936,29.3
22937,15.9
22939,28.7
22942,4.9
22943,12.5
22946,-4.7
22948,6.0
22950,4.1
22951,8.8
22952,26.8
22953,10.1
22955,20.1
22956,15.8
22959,19.8
22960,36.5
22966,28.0
22968,28.5
22970,13.7
22971,23.4
22972,13.3
22973,18.4
22981,8.4
22982,9.7
22983,22.2
22984,13.3
22987,9.5
22991,23.6
22995,26.9
22996,3.0
22997,5.0
22999,19.7
23002,19.2
23003,13.6
23004,21.2
23005,7.1
23006,3.1
23007,12.4
23008,-15.0
23011,3.7
23019,5.4
23020,7.9
23022,28.8
23024,14.7
23028,27.2
23029,28.1
23031,6.5
23032,7.1
23033,9.5
23034,8.2
23035,16.0
23036,24.0
23037,8.1
23038,24.8
23039,11.8
23046,0.5
23048,20.4
23049,12.1
23051,23.6
23052,18.0
23054,15.5
23056,7.7
23057,18.5
23058,18.3
23065,7.1
23067,14.2
23068,7.2
23069,-22.7
23070,22.4
23071,17.5
23076,22.4
23078,23.8
23080,29.9
23083,15.9
23085,30.5
23086,7.7
23089,30.3
23090,18.5
23092,28.2
23093,10.2
23094,22.7
23096,-2.1
23098,13.2
23099,19.2
23101,6.8
23105,27.7
23106,16.7
23107,3.4
23108,-15.0
23110,18.9
23112,25.9
23115,26.0
23117,21.1
23120,27.8
23121,28.8
23122,29.6
23124,15.3
23125,22.5
23126,10.2
23130,25.9
23133,12.6
23134,8.2
23135,13.1
23136,9.1
23138,18.4
23139,22.5
23145,0.5
23146,16.1
23147,18.3
23148,18.0
23149,3.4
23152,3.1
23153,22.5
23154,20.0
23156,14.7
23157,23.6
23159,16.4
23161,15.8
23163,27.3
23164,30.8
23166,5.4
23167,28.3
23170,-15.0
23172,17.4
23173,20.0
23176,29.7
23177,7.3
23178,11.6
23179,14.2
23180,4.7
23181,19.8
23182,17.4
23183,15.9
23186,30.7
23187,28.0
23189,22.2
23193,5.0
23195,-4.7
23197,21.0
23198,13.6
23200,6.3
23201,3.8
23204,12.6
23206,27.2
23207,-20.1
23210,5.1
23211,17.4
23216,14.9
23217,12.4
23220,23.4
23222,26.2
23223,14.1
23224,17.4
23226,25.3
23227,5.1
23230,26.5
23231,21.0
23232,13.6
23234,5.6
23236,31.0
23238,30.1
23242,19.2
23243,13.3
23244,4.8
23245,-2.1
23246,16.1
23249,17.7
23251,28.1
23252,27.6
23255,24.3
23256,30.9
23258,39.1
23260,6.7
23261,22.2
23268,9.7
23269,13.4
23270,10.8
23271,22.2
23277,5.3
23278,14.2
23279,3.5
23280,19.2
23282,15.9
23284,5.4
23285,20.3
23287,22.1
23290,18.6
23291,17.6
23292,3.1
23293,22.7
23294,16.2
23296,-2.1
23298,22.4
