0,129.1
1,123.1
2,142.0
4,97.6
5,157.4
6,96.0
7,144.5
9,120.2
10,131.7
11,94.7
12,126.5
15,136.8
18,166.7
19,94.2
20,117.8
23,157.4
24,98.3
25,130.3
26,117.7
28,132.4
30,158.8
31,147.5
33,129.1
35,122.1
36,102.7
39,129.5
40,137.6
41,156.9
44,162.5
45,155.9
47,100.1
49,161.1
52,131.5
54,134.2
55,122.1
57,117.0
58,162.5
60,141.4
65,154.8
67,107.9
68,116.0
74,171.1
75,147.1
77,108.3
78,120.0
80,133.9
82,138.1
84,110.0
86,162.5
89,101.2
92,109.6
93,97.5
95,160.9
96,157.4
98,152.0
104,111.6
106,154.8
107,148.0
111,172.7
117,149.7
119,178.2
120,128.4
121,93.4
125,132.7
127,138.1
128,105.8
130,136.8
131,172.2
135,96.1
141,139.4
145,161.5
146,133.2
147,132.8
152,134.2
154,90.9
156,164.4
158,129.1
161,118.4
162,95.6
163,167.7
164,106.3
167,130.1
168,117.5
175,149.7
182,119.4
184,149.5
186,147.1
191,173.4
198,142.0
199,155.6
200,133.4
203,162.5
206,136.1
207,99.1
208,140.8
209,131.7
210,99.7
211,128.2
212,133.1
214,116.3
221,142.0
222,168.2
223,134.7
224,156.2
226,129.8
227,124.1
228,104.6
229,162.8
231,143.0
232,131.7
233,95.9
234,117.9
236,108.9
238,125.6
239,142.9
241,141.8
243,167.7
244,170.0
246,146.6
248,128.7
252,177.5
253,120.7
254,149.7
256,144.9
258,141.8
260,161.1
261,152.1
264,100.1
267,144.5
269,137.9
270,139.9
272,133.2
273,142.0
278,142.0
281,137.8
282,111.1
289,134.2
291,173.8
292,153.8
293,104.7
294,153.4
296,138.6
301,152.2
302,126.9
303,137.0
305,171.4
306,105.3
309,116.5
312,131.7
313,114.9
314,174.4
315,159.9
317,116.8
318,157.6
323,165.1
326,171.1
330,150.3
334,155.2
335,152.2
337,142.5
340,129.4
341,140.5
344,168.9
346,164.1
347,142.0
353,170.1
358,142.0
359,119.6
361,153.9
362,121.4
363,136.8
364,175.1
366,156.8
367,165.8
369,139.4
370,94.6
371,102.9
372,129.7
376,142.5
377,155.8
378,144.8
379,170.7
380,160.0
381,166.1
383,165.5
384,163.8
386,116.9
388,138.6
390,147.5
391,171.7
393,134.2
399,130.7
404,162.5
405,97.4
407,91.3
409,119.5
410,142.3
411,116.9
413,176.9
415,162.5
416,173.3
419,163.0
423,161.1
426,161.5
427,154.8
428,108.5
430,134.7
434,168.6
438,147.1
441,137.1
445,125.2
446,137.1
449,144.5
455,97.5
456,155.4
459,147.4
461,170.2
463,108.9
464,135.2
465,157.7
467,166.4
469,100.3
472,97.4
473,142.0
474,112.1
475,178.7
478,134.3
479,138.5
480,114.8
481,172.5
482,141.9
484,165.1
485,169.9
489,92.0
492,161.5
493,149.1
495,162.5
497,168.0
501,165.9
502,141.6
505,166.1
506,147.1
508,165.0
509,130.1
514,141.9
515,123.3
517,103.3
518,144.5
519,167.5
520,173.2
523,142.7
525,109.9
527,161.0
529,98.0
530,134.2
533,164.6
534,118.2
539,135.4
540,157.6
541,167.7
542,157.9
550,131.8
552,144.5
553,157.4
554,159.2
558,150.2
561,107.6
564,162.5
566,150.6
568,91.8
571,157.0
572,101.0
573,111.7
575,160.0
577,142.6
579,90.9
583,176.3
584,137.9
585,166.8
586,147.1
587,178.6
588,117.7
589,148.2
590,118.4
593,100.9
594,155.1
595,93.8
599,144.5
604,95.3
605,137.8
608,164.4
610,134.2
611,161.8
612,167.0
613,154.5
614,93.8
615,119.5
616,169.1
619,116.9
620,154.3
621,170.2
623,108.6
627,96.3
629,120.9
632,160.0
634,152.7
635,160.8
636,134.7
638,124.1
642,126.2
643,172.4
644,167.7
646,97.1
648,152.1
655,165.1
656,135.9
659,144.0
661,141.2
662,108.8
663,111.8
664,145.7
666,153.4
667,149.7
669,146.4
671,139.0
672,177.8
673,177.9
674,165.7
675,128.7
678,149.7
679,123.0
681,176.0
685,130.5
688,112.2
689,148.6
690,136.8
694,167.5
695,163.8
696,111.5
698,133.9
699,106.7
700,121.2
701,172.8
702,168.9
705,99.1
706,116.1
707,125.4
711,151.1
712,160.0
714,93.8
715,102.1
717,135.7
719,111.6
720,133.8
721,131.1
724,162.5
728,167.0
734,139.0
735,128.0
736,152.2
739,158.9
741,124.0
744,90.4
745,172.3
747,139.4
748,116.5
753,136.9
754,124.0
755,112.9
756,96.2
758,147.1
759,153.4
764,127.1
765,93.1
766,99.4
767,179.9
768,131.6
770,134.2
771,175.4
773,147.1
774,108.4
775,138.2
777,163.6
779,172.7
780,126.9
781,172.8
782,113.9
787,177.8
789,176.7
790,93.4
793,165.1
795,150.2
798,139.2
799,102.2
800,178.2
801,90.7
804,160.0
807,102.8
810,127.8
811,128.0
813,174.0
816,152.2
818,135.8
821,99.2
824,147.0
827,139.4
828,150.9
829,130.8
831,137.6
834,142.1
835,143.3
838,154.8
839,161.5
840,173.4
841,141.8
843,141.8
846,94.0
847,134.6
849,147.1
851,113.4
853,158.1
855,172.6
857,167.4
858,146.4
860,152.3
862,178.0
865,90.3
867,105.6
868,135.5
872,158.7
873,170.2
876,115.0
880,145.2
881,130.9
882,114.3
883,118.8
884,165.1
885,176.5
887,100.1
889,153.6
892,164.8
894,159.0
896,154.8
898,138.4
899,170.3
902,102.2
907,144.5
909,134.2
910,130.8
912,169.9
915,91.9
916,177.1
918,167.7
921,162.5
922,176.4
923,178.7
924,161.0
928,158.2
930,149.7
933,165.5
935,163.9
937,159.8
939,158.9
942,178.0
943,93.2
944,117.5
946,108.7
948,135.3
949,137.0
953,170.2
955,95.9
957,134.4
959,139.4
961,129.9
964,157.4
968,157.3
969,176.6
972,110.0
975,152.2
976,111.1
978,126.4
980,158.5
984,130.5
985,164.6
986,98.5
987,144.5
988,154.6
989,144.5
990,146.0
993,100.1
994,175.6
995,107.4
996,164.3
999,175.4
1003,168.6
1004,177.2
1006,106.8
1007,101.5
1008,102.0
1010,152.2
1011,113.8
1012,105.0
1013,93.6
1017,113.6
1018,149.0
1020,105.3
1022,172.8
1023,168.3
1024,170.5
1025,145.0
1026,155.2
1027,122.0
1028,131.6
1034,90.7
1035,160.0
1037,158.2
1038,96.0
1047,154.8
1048,95.1
1049,152.1
1052,152.1
1053,165.5
1058,114.5
1060,198.5
1061,140.9
1062,104.4
1064,123.4
1065,160.3
1066,165.6
1071,147.9
1072,95.4
1073,198.5
1076,133.4
1078,145.5
1079,98.9
1082,147.1
1083,103.0
1085,185.7
1086,157.6
1088,139.0
1096,131.9
1097,196.0
1100,142.9
1101,156.2
1106,132.7
1107,157.0
1109,178.5
1110,185.7
1113,167.9
1114,141.7
1116,108.4
1119,106.0
1120,97.0
1122,201.1
1124,134.6
1125,116.9
1127,103.0
1128,116.1
1129,113.9
1130,170.1
1132,148.1
1133,109.3
1134,127.7
1135,188.3
1138,99.7
1139,164.6
1143,94.6
1145,107.3
1146,124.4
1147,183.1
1149,128.8
1151,151.9
1157,109.4
1158,132.7
1160,221.7
1163,103.4
1165,125.9
1166,152.5
1168,105.3
1169,174.1
1171,103.6
1172,208.8
1174,93.2
1175,143.5
1176,160.1
1178,111.3
1179,170.4
1181,127.3
1182,102.2
1183,141.4
1184,196.0
1185,107.7
1186,176.3
1191,142.5
1194,90.9
1196,131.8
1198,208.8
1199,144.4
1200,92.7
1202,98.6
1203,111.9
1205,120.0
1206,161.8
1207,176.9
1210,196.0
1213,92.3
1214,131.5
1215,145.4
1217,98.1
1218,157.7
1222,211.4
1223,93.1
1225,130.6
1231,104.4
1233,99.8
1234,198.5
1235,138.6
1236,124.3
1237,93.7
1239,135.8
1241,169.6
1243,149.0
1244,134.6
1247,185.7
1250,106.7
1252,92.2
1253,164.1
1256,118.5
1258,173.0
1260,221.7
1261,159.6
1263,156.9
1264,161.3
1271,179.9
1272,211.4
1273,100.0
1274,105.0
1276,162.7
1280,176.8
1284,132.7
1285,201.1
1291,90.6
1294,113.1
1297,221.7
1299,112.0
1301,94.8
1302,178.1
1303,164.3
1306,158.4
1308,116.4
1309,208.8
1310,160.8
1313,171.2
1321,211.4
1324,106.5
1325,103.0
1335,196.0
1340,148.3
1341,91.4
1342,120.8
1344,109.3
1347,185.7
1348,142.9
1350,158.0
1351,102.8
1352,155.9
1354,174.3
1355,155.7
1357,142.5
1358,117.5
1359,224.3
1364,164.1
1366,161.8
1368,132.7
1369,106.2
1372,214.0
1373,145.5
1374,108.7
1375,106.4
1377,147.7
1383,121.8
1384,193.4
1386,98.5
1389,173.1
1390,132.3
1395,97.1
1396,131.9
1397,211.4
1401,163.7
1402,154.8
1405,92.2
1406,177.4
1407,102.1
1408,175.3
1410,198.5
1413,164.4
1414,122.3
1418,138.6
1420,100.1
1421,93.3
1422,201.1
1424,99.5
1425,141.7
1426,99.9
1427,176.0
1429,138.3
1432,173.0
1433,98.2
1434,193.4
1435,162.5
1436,138.6
1441,126.4
1443,158.2
1444,115.7
1446,185.7
1447,144.6
1450,138.2
1455,127.2
1459,133.1
1460,221.7
1461,128.5
1463,169.1
1466,178.3
1467,150.7
1468,101.4
1470,131.7
1472,203.7
1475,179.9
1476,171.7
1477,135.0
1480,114.2
1484,188.3
1488,131.1
1490,92.1
1491,157.4
1492,129.4
1494,149.2
1496,177.9
1497,216.6
1498,177.9
1500,99.9
1506,92.9
1509,203.7
1510,116.2
1512,166.2
1513,101.8
1514,129.3
1516,93.9
1518,126.3
1521,201.1
1522,156.3
1525,158.8
1526,174.0
1528,159.2
1529,174.8
1530,108.1
1531,144.7
1534,185.7
1536,155.7
1537,101.5
1542,107.8
1543,119.3
1544,110.7
1545,138.6
1547,175.4
1551,135.9
1555,114.3
1557,175.0
1558,93.5
1559,211.4
1561,104.2
1562,110.2
1564,176.9
1565,126.9
1567,114.7
1568,106.9
1571,203.7
1572,154.3
1573,90.9
1576,95.9
1577,105.0
1578,156.9
1584,190.8
1585,134.3
1586,174.5
1590,103.4
1591,91.3
1597,216.6
1598,171.2
1599,90.1
1601,108.7
1608,109.6
1609,206.3
1610,95.5
1611,91.6
1614,136.7
1616,112.4
1617,116.3
1618,154.3
1620,126.3
1621,111.5
1622,198.5
1624,100.0
1631,90.4
1632,136.5
1633,141.5
1634,190.8
1635,160.0
1637,179.9
1640,100.9
1641,100.7
1646,185.7
1647,161.8
1649,92.1
1650,175.9
1651,166.5
1653,124.6
1655,157.8
1659,216.6
1660,146.5
1662,163.8
1663,102.5
1665,134.5
1667,174.0
1670,156.8
1671,142.4
1672,201.1
1676,137.9
1677,159.6
1679,155.4
1682,156.6
1683,145.6
1684,180.5
1685,124.9
1686,138.8
1689,156.0
1691,117.0
1693,179.0
1696,216.6
1698,175.6
1700,174.9
1701,168.0
1702,139.3
1703,133.2
1704,113.2
1706,112.0
1709,203.7
1710,94.6
1711,172.9
1712,163.4
1713,177.5
1715,136.4
1717,151.6
1719,112.4
1721,193.4
1723,100.7
1724,98.7
1726,165.2
1728,175.8
1732,97.4
1734,185.7
1735,98.7
1739,169.4
1740,118.7
1741,149.6
1743,140.0
1745,123.2
1746,172.8
1753,113.3
1754,135.1
1758,158.3
1759,201.1
1764,176.7
1770,117.8
1771,196.0
1772,177.6
1773,107.0
1774,113.4
1775,166.3
1777,91.1
1779,122.7
1780,119.2
1781,111.5
1783,185.7
1788,127.2
1789,92.7
1790,118.9
1791,174.9
1793,144.6
1795,112.5
1796,142.4
1797,219.1
1798,153.4
1800,167.7
1809,201.1
1815,128.9
1816,103.3
1817,94.8
1821,196.0
1822,95.3
1824,102.4
1825,169.3
1826,154.9
1828,162.9
1830,153.6
1833,193.4
1834,138.5
1840,98.2
1841,135.6
1842,172.9
1843,148.7
1844,136.2
1846,188.3
1848,143.7
1851,159.0
1854,177.1
1855,103.4
1857,170.2
1858,102.7
1859,214.0
1861,137.8
1863,135.1
1864,96.3
1865,113.6
1866,119.2
1870,102.2
1871,198.5
1872,110.5
1873,172.1
1877,147.3
1880,107.3
1882,118.0
1884,183.1
1885,175.6
1886,110.0
1887,179.6
1889,91.6
1891,116.5
1892,104.4
1893,98.5
1896,216.6
1897,159.4
1905,175.5
1907,139.6
1908,208.8
1913,119.9
1914,139.4
1917,151.8
1920,174.4
1921,190.8
1925,146.6
1926,160.8
1930,177.7
1931,121.1
1934,190.8
1936,91.6
1941,149.9
1945,170.3
1946,175.4
1950,100.3
1957,92.9
1958,196.0
1959,131.8
1960,105.6
1961,95.0
1963,128.4
1968,92.1
1969,97.7
1971,183.1
1977,140.5
1979,137.0
1980,131.2
1983,175.4
1985,92.7
1986,155.1
1988,157.1
1989,105.8
1991,178.5
1996,214.0
1997,101.4
2000,156.2
2001,173.3
2003,128.4
2004,121.6
2005,101.3
2006,148.9
2007,113.8
2009,198.5
2010,137.9
2011,123.7
2013,134.8
2015,128.6
2019,157.6
2021,180.5
2022,110.2
2023,163.3
2024,170.2
2026,172.2
2027,157.9
2032,118.1
2033,185.7
2036,155.3
2041,177.4
2043,117.5
2044,106.0
2045,185.7
2046,103.0
2049,129.6
2050,178.9
2051,166.7
2056,117.0
2058,164.3
2059,208.8
2063,92.3
2064,146.0
2066,120.0
2067,90.6
2068,134.9
2070,156.9
2071,190.8
2072,146.3
2073,108.4
2074,155.9
2077,134.3
2078,103.4
2080,111.1
2082,140.3
2083,178.0
2084,128.0
2085,134.2
2089,126.9
2090,105.2
2091,174.6
2093,158.1
2094,157.5
2096,214.0
2097,101.4
2098,131.3
2099,175.7
2100,125.5
2101,178.8
2102,135.8
2105,166.3
2108,203.7
2109,153.3
2113,124.9
2114,121.6
2115,152.9
2116,126.0
2117,103.7
2119,101.7
2120,188.3
2121,178.5
2125,176.1
2128,145.9
2129,129.8
2131,179.8
2134,196.0
2135,166.7
2137,129.8
2138,167.1
2139,114.3
2144,146.1
2146,183.1
2148,132.6
2149,164.7
2150,149.6
2153,142.0
2157,147.5
2158,196.0
2159,122.5
2165,93.3
2167,177.7
2170,180.5
2171,99.8
2172,135.9
2176,135.1
2178,133.5
2182,117.1
2183,170.2
2186,103.1
2189,111.2
2190,167.8
2191,163.1
2194,117.7
2196,211.4
2197,117.7
2199,127.7
2202,156.5
2208,203.7
2210,124.1
2213,103.7
2215,99.9
2216,97.8
2219,161.2
2220,129.0
2221,183.1
2223,112.8
2225,156.4
2226,122.1
2228,122.1
2230,141.7
2232,105.5
2233,193.4
2234,177.3
2235,149.4
2236,114.9
2237,115.5
2239,163.7
2242,159.0
2244,99.1
2245,183.1
2246,153.9
2250,134.4
2252,107.6
2253,139.5
2254,137.8
2255,131.7
2256,90.2
2257,150.2
2258,198.5
2260,111.0
2263,110.3
2264,150.9
2265,161.0
2266,135.0
2267,167.8
2269,162.6
2271,188.3
2272,155.2
2275,137.5
2276,115.0
2278,162.1
2279,138.3
2281,179.4
2283,183.1
2288,126.5
2290,168.0
2292,91.6
2293,166.2
2295,219.1
2297,163.5
2298,179.4
2299,106.4
2300,104.5
2301,169.0
2302,118.0
2304,149.1
2308,206.3
2309,115.1
2310,162.2
2311,106.8
2313,167.7
2314,100.7
2316,126.1
2317,118.0
2320,183.1
2321,157.0
2322,137.5
2325,90.4
2328,175.1
2333,198.5
2335,134.7
2337,99.0
2339,155.7
2340,168.5
2342,124.7
2343,178.9
2344,108.2
2345,190.8
2346,95.6
2351,152.9
2353,99.5
2354,130.2
2355,164.5
2358,196.0
2359,146.1
2370,180.5
2371,172.1
2372,94.5
2373,98.1
2379,114.8
2382,167.7
2383,174.5
2384,108.9
2389,172.7
2390,132.7
2391,100.5
2394,99.6
2396,206.3
2397,152.1
2398,157.3
2402,143.1
2403,132.0
2406,148.7
2408,193.4
2409,127.3
2410,160.3
2412,99.4
2419,146.7
2420,178.0
2421,124.9
2422,173.5
2424,158.5
2425,174.6
2426,151.5
2427,145.5
2428,157.6
2430,94.6
2433,201.1
2436,135.7
2438,98.9
2439,148.3
2440,166.1
2442,147.3
2444,163.9
2445,190.8
2452,119.6
2458,188.3
2461,122.8
2464,90.8
2468,100.8
2470,175.4
2473,108.5
2475,129.4
2481,110.1
2482,137.7
2483,180.5
2484,153.6
2486,92.0
2488,173.0
2490,140.2
2493,150.8
2494,165.3
2495,214.0
2496,137.0
2498,90.3
2499,102.4
2507,198.5
2508,132.1
2509,158.4
2517,154.4
2518,132.1
2520,180.5
2522,175.1
2529,99.5
2530,92.5
2531,152.1
2533,201.1
2534,100.0
2538,145.4
2544,177.8
2545,193.4
2548,103.9
2551,170.4
2552,150.9
2553,169.1
2555,142.9
2556,178.9
2557,190.8
2558,112.6
2561,134.1
2562,100.9
2565,107.8
2567,120.5
2569,110.4
2570,180.5
2572,130.3
2578,127.7
2579,167.7
2581,171.0
2582,170.2
2584,90.6
2585,161.8
2587,139.2
2590,150.6
2595,198.5
2596,154.5
2600,123.0
2603,121.7
2604,168.0
2606,135.0
2608,188.3
2609,91.3
2610,148.6
2613,150.2
2614,116.4
2615,161.9
2618,102.1
2620,172.8
2622,168.9
2623,176.8
2625,104.6
2626,164.2
2628,125.2
2630,93.4
2631,179.4
2632,201.1
2634,144.2
2636,158.7
2641,139.6
2644,193.4
2648,166.2
2649,113.4
2651,150.0
2652,91.8
2653,162.1
2656,151.4
2657,122.1
2658,185.7
2662,129.3
2664,152.1
2665,112.1
2669,166.5
2670,172.8
2672,172.3
2675,122.8
2676,157.4
2677,169.0
2678,102.8
2679,119.0
2680,156.2
2682,167.7
2684,165.5
2688,170.5
2689,164.1
2693,125.0
2694,90.4
2695,201.1
2696,173.5
2697,109.6
2700,122.8
2702,178.1
2703,175.9
2704,148.4
2705,159.0
2706,170.4
2707,196.0
2710,104.1
2712,166.4
2713,153.3
2714,152.5
2715,145.8
2718,167.9
2719,178.0
2722,142.0
2724,116.0
2731,167.0
2732,135.3
2733,206.3
2735,109.8
2736,90.9
2740,172.2
2741,156.5
2742,144.1
2743,162.9
2744,163.3
2745,190.8
2747,118.5
2748,110.6
2752,103.3
2753,123.1
2757,180.5
2758,96.4
2765,132.9
2769,178.0
2770,122.8
2772,162.7
2773,139.5
2774,124.9
2775,116.2
2777,154.2
2779,112.1
2780,150.1
2782,172.8
2787,174.2
2788,167.6
2789,110.9
2792,139.5
2795,198.5
2796,98.4
2797,119.3
2799,163.8
2801,169.2
2803,114.9
2805,134.9
2806,113.4
2807,188.3
2808,179.4
2811,134.2
2816,163.8
2817,142.7
2819,128.2
2820,167.7
2822,176.3
2823,118.8
2824,112.2
2825,120.3
2827,157.0
2829,172.3
2831,100.0
2832,203.7
2835,139.1
2836,96.9
2842,130.4
2844,196.0
2846,134.3
2847,162.6
2851,102.1
2852,143.3
2853,158.9
2854,134.8
2855,98.9
2856,122.6
2857,185.7
2858,103.9
2860,166.9
2861,147.6
2865,158.6
2868,163.1
2869,131.6
2870,183.1
2873,110.4
2878,124.5
2880,103.8
2882,170.2
2883,160.8
2884,129.2
2888,156.4
2891,179.2
2893,159.5
2894,190.8
2895,128.1
2896,131.6
2897,102.7
2901,122.2
2903,129.7
2904,92.5
2905,108.3
2907,175.4
2908,164.4
2910,131.7
2911,122.5
2914,162.5
2916,157.9
2919,165.1
2920,133.3
2921,179.5
2926,157.7
2927,133.3
2929,155.0
2931,109.5
2932,196.0
2934,133.8
2937,117.6
2938,110.5
2939,91.4
2940,106.7
2941,129.8
2942,163.9
2944,165.6
2945,172.8
2946,135.3
2948,119.2
2949,131.3
2957,154.8
2966,106.3
2969,152.2
2977,94.5
2978,140.6
2980,119.9
2981,147.1
2982,159.4
2983,125.5
2986,137.5
2988,178.3
2990,170.4
2991,106.7
2992,136.5
2994,117.0
2995,162.5
2996,94.1
2997,127.5
2998,112.6
2999,90.9
3000,148.7
3002,124.0
3003,108.6
3004,133.0
3005,96.1
3006,165.1
3007,149.7
3009,108.6
3011,120.4
3014,155.4
3017,177.0
3019,134.2
3020,126.1
3021,127.6
3023,102.5
3025,144.3
3026,109.6
3027,137.6
3028,155.0
3029,165.2
3031,144.7
3032,162.5
3035,126.6
3036,150.5
3039,92.7
3042,113.7
3043,172.7
3044,157.4
3046,137.1
3051,125.4
3054,151.1
3056,105.9
3057,142.0
3061,152.5
3064,160.2
3067,160.0
3068,113.4
3069,147.1
3072,121.2
3076,92.3
3078,137.2
3082,134.2
3084,165.1
3086,159.5
3087,132.7
3088,142.0
3094,147.1
3095,156.8
3098,176.1
3100,119.5
3102,166.8
3103,128.6
3106,136.8
3108,113.2
3109,90.8
3110,107.3
3111,149.1
3112,119.0
3116,130.5
3117,156.3
3119,134.2
3122,135.0
3124,169.4
3125,135.0
3127,120.5
3129,112.9
3130,129.3
3131,96.9
3132,160.0
3133,153.4
3134,92.5
3135,164.8
3136,137.4
3137,103.2
3138,106.3
3140,108.9
3142,126.2
3143,165.4
3144,144.5
3145,131.0
3150,108.6
3151,95.4
3152,105.8
3154,174.9
3155,103.3
3156,129.1
3158,99.3
3160,158.5
3161,165.2
3165,164.7
3166,148.6
3169,134.2
3171,134.1
3173,144.6
3176,177.2
3178,99.6
3181,129.1
3182,104.8
3183,160.1
3184,104.2
3185,169.5
3186,123.5
3187,116.0
3192,165.3
3193,126.4
3194,142.0
3195,139.8
3198,92.9
3200,105.8
3201,99.3
3203,128.2
3204,142.1
3207,131.7
3208,108.7
3209,167.1
3211,106.1
3212,92.7
3213,106.2
3215,127.2
3219,118.8
3220,176.5
3222,141.2
3227,139.5
3228,98.6
3231,147.1
3233,178.1
3235,114.0
3237,151.1
3238,114.2
3239,164.6
3241,95.4
3242,139.2
3244,139.4
3245,168.2
3247,130.6
3249,169.5
3250,158.4
3251,172.9
3252,162.6
3253,97.2
3254,173.1
3255,130.1
3256,160.1
3257,134.2
3262,169.9
3263,151.7
3264,174.7
3265,116.2
3267,107.8
3268,106.6
3269,144.5
3271,165.2
3272,106.5
3273,172.5
3274,123.9
3276,110.1
3277,100.2
3278,162.8
3279,104.4
3280,115.1
3281,129.1
3284,129.9
3286,178.1
3287,172.4
3289,90.5
3290,110.0
3291,140.7
3294,136.8
3297,156.7
3300,158.1
3301,119.3
3303,95.5
3305,169.3
3306,123.9
3307,145.4
3317,145.1
3318,118.8
3320,178.8
3322,119.3
3323,152.9
3327,109.7
3331,144.4
3332,152.2
3339,101.4
3344,142.0
3348,153.1
3350,179.2
3354,134.4
3356,123.9
3360,138.7
3361,97.8
3362,170.5
3365,100.6
3366,124.9
3367,121.3
3368,139.4
3370,94.3
3371,177.7
3373,140.7
3376,128.6
3377,101.3
3381,134.2
3384,128.7
3386,127.8
3389,125.6
3393,119.8
3394,139.4
3398,105.4
3401,167.7
3402,139.8
3406,131.7
3412,117.3
3413,178.0
3414,142.9
3415,113.8
3416,157.4
3417,142.8
3418,92.1
3419,123.9
3420,155.1
3422,135.5
3428,139.2
3430,117.1
3431,152.2
3432,90.3
3433,157.3
3434,179.4
3435,157.8
3436,166.2
3437,92.0
3440,94.0
3443,139.4
3445,90.9
3447,154.3
3448,99.3
3451,176.4
3453,166.0
3454,143.6
3457,123.9
3458,104.9
3459,159.4
3463,171.4
3464,159.9
3469,142.0
3471,175.0
3473,169.4
3475,111.4
3476,92.9
3480,113.3
3481,136.8
3482,141.5
3483,93.1
3485,110.3
3493,134.2
3494,170.9
3495,121.4
3499,107.3
3500,108.6
3502,90.6
3505,105.1
3506,121.4
3508,122.2
3509,93.7
3511,162.9
3513,171.5
3515,162.5
3516,121.0
3518,113.7
3519,177.6
3521,100.2
3526,169.6
3527,110.4
3529,120.4
3531,144.5
3532,119.6
3542,154.6
3544,136.8
3546,170.8
3547,110.3
3550,126.4
3551,135.4
3552,139.9
3556,123.9
3560,140.4
3561,152.6
3566,108.7
3567,107.4
3568,139.4
3569,159.8
3570,107.3
3574,104.6
3576,166.5
3578,125.5
3580,129.1
3582,104.7
3583,128.4
3585,90.7
3587,138.4
3592,121.2
3594,126.5
3597,157.2
3598,138.5
3601,148.1
3606,116.2
3607,101.0
3609,164.8
3613,161.0
3615,157.7
3616,98.1
3617,169.2
3618,116.2
3619,95.2
3620,160.2
3622,157.6
3626,125.4
3627,171.7
3628,145.1
3630,145.3
3631,144.5
3632,175.6
3633,100.6
3634,111.8
3635,134.7
3637,107.8
3639,133.3
3641,117.8
3642,123.5
3643,131.7
3645,104.4
3647,171.6
3649,124.6
3653,143.6
3656,116.2
3659,168.0
3662,147.7
3668,139.4
3669,141.0
3670,171.2
3673,120.8
3675,178.7
3678,98.8
3679,101.9
3681,131.7
3682,125.6
3685,96.8
3686,110.6
3688,133.3
3689,110.9
3691,126.1
3693,129.1
3695,175.0
3701,166.9
3703,114.7
3705,121.4
3706,118.7
3709,150.1
3710,135.8
3718,108.5
3719,172.6
3720,112.7
3722,99.3
3723,171.5
3725,153.1
3726,170.1
3727,128.3
3728,130.4
3729,159.0
3731,136.8
3732,92.4
3733,141.4
3734,104.3
3737,156.8
3738,138.0
3743,129.1
3745,114.2
3746,168.7
3748,114.3
3749,107.2
3750,153.5
3751,95.7
3752,152.2
3753,167.4
3754,121.9
3756,118.8
3757,118.6
3759,114.4
3762,154.8
3766,102.6
3768,144.5
3773,142.4
3774,99.5
3778,111.4
3779,165.7
3780,134.2
3781,136.6
3782,129.7
3783,172.6
3786,131.5
3788,102.6
3789,132.0
3791,177.6
3792,123.7
3793,123.9
3795,156.7
3796,167.4
3797,103.8
3799,98.4
3800,139.1
3801,153.7
3804,112.9
3805,161.8
3806,123.9
3808,118.9
3809,173.9
3813,161.2
3814,143.2
3818,123.9
3819,156.2
3820,177.2
3824,117.2
3825,138.8
3826,134.3
3828,128.8
3829,147.1
3830,147.1
3834,164.7
3838,107.8
3840,108.8
3843,136.8
3844,111.1
3847,105.3
3848,143.1
3849,140.2
3853,121.9
3854,122.2
3856,121.4
3860,145.6
3861,95.1
3863,120.6
3866,154.5
3867,149.9
3868,144.5
3871,176.4
3872,114.7
3874,169.5
3875,120.0
3876,135.3
3880,136.8
3881,160.6
3882,156.2
3885,137.7
3886,164.7
3888,138.7
3889,177.5
3892,118.9
3893,123.9
3895,129.4
3897,161.4
3898,102.1
3899,161.0
3900,91.6
3902,135.7
3904,125.8
3905,126.5
3907,101.3
3909,142.6
3910,105.1
3911,117.5
3916,109.5
3917,118.8
3918,160.2
3920,168.7
3923,156.3
3926,97.2
3927,142.7
3929,105.2
3931,136.8
3935,104.3
3937,106.5
3941,121.5
3943,126.5
3944,157.9
3947,138.0
3954,121.7
3955,113.7
3956,161.6
3957,174.0
3958,126.5
3960,158.1
3962,179.0
3964,130.2
3968,147.1
3971,139.7
3978,107.0
3979,158.4
3980,139.4
3985,169.3
3989,148.2
3990,98.2
3993,129.1
3994,175.1
3995,161.4
3997,112.1
3998,114.6
3999,115.9
4001,141.6
4002,143.5
4003,160.9
4005,126.5
4006,144.5
4007,149.0
4008,125.5
4012,164.8
4015,129.9
4016,102.1
4018,121.4
4019,125.9
4020,113.6
4023,164.8
4027,120.8
4030,142.0
4032,165.5
4034,176.7
4035,122.5
4036,107.5
4039,96.0
4040,165.2
4042,131.7
4047,148.2
4050,91.7
4053,110.8
4054,96.7
4056,123.9
4059,156.4
4064,97.6
4066,109.8
4067,123.4
4068,149.7
4069,108.1
4077,145.7
4079,102.1
4080,136.8
4084,116.8
4087,131.7
4091,97.8
4092,129.1
4093,143.3
4094,124.4
4098,90.5
4101,94.2
4103,176.9
4104,173.9
4105,131.7
4107,102.9
4108,133.7
4111,93.4
4112,126.0
4114,126.0
4116,173.1
4117,121.4
4120,157.4
4121,164.8
4125,94.9
4127,177.8
4130,134.2
4133,168.3
4134,125.2
4139,109.7
4141,137.3
4142,174.5
4143,118.8
4147,90.9
4155,108.5
4159,141.5
4160,110.5
4167,142.0
4168,105.6
4173,114.4
4174,98.1
4176,164.4
4179,136.8
4181,149.3
4182,167.2
4183,150.6
4188,108.5
4190,168.1
4191,107.8
4192,126.9
4193,123.9
4199,91.1
4200,174.3
4202,145.5
4204,115.5
4205,129.1
4209,98.4
4211,129.2
4212,102.3
4213,108.0
4216,98.9
4217,118.8
4218,121.4
4220,171.0
4227,115.9
4228,172.4
4229,107.7
4230,134.2
4234,106.1
4236,132.3
4237,170.5
4238,137.1
4240,132.9
4241,127.8
4242,131.7
4244,172.7
4245,92.8
4246,167.3
4254,108.8
4255,126.5
4258,112.6
4259,116.3
4260,146.1
4261,94.1
4263,115.0
4264,128.6
4265,96.3
4268,154.8
4269,119.5
4272,120.6
4273,136.0
4274,129.7
4280,142.0
4281,179.8
4282,165.2
4283,134.5
4284,145.4
4285,107.0
4286,117.0
4287,106.4
4288,169.4
4289,115.8
4291,109.7
4292,126.5
4293,117.7
4294,159.4
4297,97.0
4298,134.7
4299,109.7
4301,121.1
4304,134.2
4306,160.3
4307,161.7
4308,135.1
4309,125.0
4311,113.0
4317,131.7
4318,141.3
4321,179.8
4322,104.9
4323,168.7
4324,159.5
4326,123.3
4328,110.3
4329,165.8
4330,136.8
4333,102.3
4334,140.3
4336,93.7
4338,151.9
4339,105.6
4342,126.5
4345,136.4
4346,156.1
4347,114.0
4348,148.8
4350,178.1
4351,90.3
4353,120.5
4354,135.1
4355,113.7
4357,120.3
4359,169.7
4360,133.4
4361,174.9
4364,105.7
4366,125.2
4367,144.5
4368,115.1
4371,118.9
4373,143.1
4379,142.0
4380,91.4
4385,161.8
4389,142.3
4390,109.8
4391,138.0
4392,123.9
4394,113.6
4395,128.5
4397,117.4
4398,166.2
4404,147.2
4405,139.4
4406,156.3
4408,116.4
4411,131.0
4414,176.1
4417,126.5
4422,137.0
4423,114.8
4426,131.1
4429,129.1
4432,125.7
4434,123.8
4440,138.8
4442,118.8
4443,130.6
4445,148.7
4450,167.1
4451,169.1
4454,113.1
4455,121.4
4456,127.3
4459,132.1
4460,151.1
4461,124.9
4463,111.0
4467,147.1
4472,139.8
4474,162.8
4480,134.2
4486,176.8
4487,96.0
4488,149.3
4489,169.4
4490,97.8
4491,123.5
4492,116.2
4493,136.6
4497,144.8
4498,93.0
4499,95.4
4500,130.8
4502,173.2
4503,105.0
4504,136.8
4505,165.9
4510,91.0
4511,136.5
4515,120.1
4516,131.7
4518,152.8
4519,148.5
4520,165.4
4522,124.7
4523,116.1
4525,111.3
4526,127.1
4527,169.4
4528,93.0
4530,134.2
4532,170.9
4534,110.5
4536,112.3
4537,114.0
4538,128.2
4539,135.8
4540,109.0
4542,121.4
4543,125.7
4544,148.0
4547,149.9
4549,92.0
4550,126.4
4553,153.1
4554,116.2
4555,169.9
4557,100.8
4558,174.0
4559,106.5
4562,106.5
4564,126.9
4565,167.2
4567,147.1
4568,172.0
4569,147.8
4571,159.8
4572,145.3
4575,159.4
4576,130.7
4577,148.2
4579,142.0
4580,128.8
4585,109.6
4586,158.4
4590,150.9
4592,129.1
4593,162.8
4600,94.2
4603,132.4
4604,147.1
4605,108.5
4608,127.3
4611,117.4
4612,163.2
4616,152.7
4617,131.7
4618,152.4
4620,168.2
4621,135.3
4622,133.3
4623,126.0
4624,156.8
4626,118.3
4627,179.5
4628,119.0
4629,129.1
4632,92.0
4634,150.4
4636,117.2
4637,102.4
4639,164.6
4640,152.5
4641,118.8
4642,95.3
4643,148.3
4645,140.5
4647,158.8
4649,158.8
4653,139.1
4654,126.1
4655,116.2
4657,155.1
4658,92.7
4665,125.2
4666,106.8
4667,142.0
4668,95.5
4669,96.3
4670,158.7
4671,142.0
4672,176.6
4674,170.7
4677,91.3
4678,107.2
4679,131.7
4681,162.9
4682,142.3
4683,159.0
4685,135.8
4689,145.4
4691,113.7
4694,150.6
4698,141.0
4699,138.3
4700,104.4
4701,100.8
4704,136.8
4706,103.9
4708,153.2
4710,176.9
4711,159.3
4713,159.5
4715,111.0
4716,134.2
4718,98.1
4719,156.4
4721,173.0
4723,138.1
4724,164.0
4726,117.7
4729,131.7
4730,113.6
4731,126.5
4732,116.3
4733,92.7
4734,154.6
4739,143.2
4740,151.8
4742,121.4
4743,149.8
4746,177.5
4752,97.8
4754,111.1
4756,159.4
4759,176.2
4764,117.2
4766,139.4
4768,179.1
4769,144.1
4770,91.7
4771,115.4
4772,159.8
4773,144.9
4774,127.7
4775,92.4
4779,129.1
4781,124.2
4782,106.2
4783,145.5
4785,163.8
4787,129.5
4788,90.2
4789,113.3
4791,144.7
4792,118.8
4793,104.6
4796,179.9
4797,110.9
4798,172.1
4799,156.8
4800,115.0
4801,160.8
4803,163.1
4804,149.7
4805,152.8
4807,160.5
4808,152.4
4810,164.0
4811,96.8
4812,155.2
4813,100.0
4814,132.4
4816,136.8
4817,167.4
4824,90.5
4825,147.1
4826,175.8
4827,114.4
4828,110.0
4829,126.5
4835,100.3
4836,169.5
4838,137.5
4841,121.4
4842,167.7
4844,158.3
4846,172.9
4847,99.3
4849,148.5
4851,112.7
4854,121.4
4855,159.5
4856,172.9
4857,149.2
4859,171.1
4867,144.5
4870,148.9
4871,98.4
4872,90.1
4874,174.6
4875,159.7
4876,100.3
4879,126.5
4880,94.9
4883,143.9
4884,104.0
4887,146.8
4888,93.8
4889,169.2
4891,116.2
4892,108.3
4896,136.2
4898,138.5
4901,136.6
4902,170.8
4903,142.0
4905,176.5
4907,95.9
4910,104.3
4912,103.5
4913,104.9
4915,175.1
4916,129.1
4919,139.5
4921,148.6
4922,159.3
4925,165.0
4927,165.8
4929,123.9
4932,119.4
4937,175.2
4939,149.4
4941,126.5
4942,91.7
4943,103.3
4945,135.7
4947,142.2
4948,120.5
4949,140.8
4954,116.2
4958,147.7
4959,132.0
4960,114.8
4962,96.8
4965,138.6
4966,136.8
4970,128.1
4971,143.3
4972,100.1
4973,144.0
4978,126.5
4983,170.5
4985,167.3
4987,105.4
4988,132.5
4990,125.3
4992,118.8
4993,91.4
4997,93.0
4999,102.0
5000,91.5
5004,152.2
5009,146.2
5011,131.1
5016,144.5
5021,147.2
5027,162.4
5028,129.1
5029,179.5
5030,127.9
5031,150.5
5032,169.4
5033,115.3
5034,109.7
5038,162.3
5039,124.3
5041,126.5
5042,148.6
5045,147.8
5048,120.1
5051,137.0
5052,163.9
5054,116.2
5056,133.6
5060,90.5
5062,106.1
5063,156.2
5064,116.6
5066,134.2
5067,149.6
5068,149.2
5072,116.8
5073,149.2
5075,123.7
5076,126.7
5079,126.5
5082,91.7
5085,98.1
5088,173.3
5089,176.1
5091,113.7
5094,131.3
5097,112.4
5098,106.4
5100,171.9
5101,141.3
5103,144.5
5104,126.5
5114,163.5
5115,131.7
5119,153.4
5120,112.5
5121,123.9
5125,158.5
5129,116.2
5132,90.1
5139,172.6
5141,121.4
5142,116.4
5145,123.8
5146,102.0
5147,158.8
5149,152.1
5152,93.8
5153,118.8
5156,121.9
5158,152.9
5159,128.2
5166,136.8
5170,135.1
5171,97.1
5173,138.0
5178,123.9
5179,129.6
5182,123.0
5183,174.7
5185,151.2
5186,177.4
5187,168.6
5189,164.4
5190,114.5
5191,113.7
5193,168.9
5197,135.9
5199,103.2
5201,121.7
5202,154.5
5203,144.5
5204,130.7
5206,134.9
5207,136.6
5209,114.9
5212,154.1
5213,127.0
5214,179.9
5216,147.1
5217,176.5
5218,110.8
5219,93.5
5221,126.3
5225,131.7
5226,159.8
5228,134.2
5229,177.3
5231,126.7
5233,142.7
5234,101.6
5240,142.0
5245,142.3
5246,141.0
5247,133.6
5250,172.0
5251,169.9
5252,171.5
5254,123.9
5256,102.1
5264,94.5
5265,113.1
5266,134.2
5267,144.4
5268,124.8
5269,104.9
5270,127.0
5272,145.8
5274,91.0
5276,127.5
5278,123.9
5279,96.5
5281,130.8
5284,173.8
5285,142.5
5286,105.9
5290,170.3
5291,121.4
5292,123.9
5293,178.7
5298,171.8
5299,175.3
5300,149.2
5303,152.2
5304,103.9
5310,172.3
5311,144.3
5312,175.6
5314,139.3
5315,142.0
5316,109.4
5317,157.6
5318,156.1
5319,167.9
5320,126.0
5323,136.3
5324,153.9
5328,126.5
5331,130.6
5335,106.9
5341,136.8
5342,172.5
5345,129.0
5346,117.1
5348,112.2
5349,137.3
5353,131.7
5354,94.4
5357,175.3
5358,162.7
5360,170.6
5361,163.2
5362,98.6
5365,142.0
5366,108.0
5367,137.5
5368,107.1
5370,158.8
5375,97.6
5378,131.7
5379,179.2
5381,126.2
5382,92.6
5383,170.7
5385,116.1
5386,94.5
5387,178.1
5389,152.9
5391,123.9
5395,173.7
5397,103.2
5403,152.2
5404,145.5
5409,157.2
5413,96.1
5415,142.0
5416,161.3
5421,156.7
5423,149.5
5424,166.8
5428,123.9
5429,168.4
5430,155.8
5431,140.8
5436,109.6
5438,100.6
5440,136.8
5442,108.4
5445,163.0
5447,134.6
5448,103.7
5449,147.2
5451,138.9
5453,136.8
5455,101.9
5456,143.2
5457,138.6
5460,148.0
5462,165.0
5463,124.5
5464,104.4
5465,160.7
5466,136.8
5467,174.6
5472,102.2
5475,171.8
5476,119.7
5478,121.4
5479,177.3
5480,148.4
5481,95.0
5482,106.4
5486,120.3
5487,110.9
5488,141.3
5490,113.7
5491,133.6
5492,128.4
5495,144.8
5496,162.0
5498,146.0
5499,113.5
5502,144.5
5503,171.5
5504,126.1
5505,172.4
5506,141.2
5507,177.9
5510,159.9
5512,172.9
5514,178.1
5515,142.0
5519,93.1
5522,178.9
5525,123.3
5527,138.1
5528,123.9
5532,169.1
5534,97.7
5536,149.3
5537,112.1
5538,174.2
5540,139.4
5542,130.4
5548,126.8
5552,99.0
5553,131.7
5556,137.4
5558,141.5
5560,178.0
5561,103.8
5563,158.8
5565,129.1
5567,172.4
5570,147.8
5571,159.4
5572,166.5
5576,90.6
5577,121.4
5578,112.3
5579,174.5
5580,134.2
5582,100.8
5583,104.7
5585,110.3
5586,96.5
5587,107.5
5588,149.4
5591,118.8
5597,118.4
5600,126.4
5601,91.1
5602,134.7
5603,152.2
5604,134.6
5606,147.8
5608,96.6
5609,179.2
5610,121.5
5613,110.3
5614,97.8
5615,139.4
5618,141.8
5619,149.7
5622,176.9
5625,103.2
5626,120.0
5627,121.4
5628,146.0
5629,165.2
5631,143.8
5632,96.4
5633,107.8
5637,133.6
5638,108.9
5639,93.6
5640,142.0
5641,116.8
5642,106.5
5644,116.5
5645,179.7
5647,114.8
5650,130.4
5652,139.5
5653,142.0
5654,90.0
5656,114.4
5657,128.8
5658,130.0
5659,176.3
5661,127.4
5662,101.6
5665,142.0
5670,110.3
5671,178.8
5672,173.1
5674,169.6
5675,152.3
5676,132.3
5678,129.1
5682,118.9
5683,160.0
5686,144.7
5689,160.8
5690,118.8
5691,146.7
5692,178.0
5693,151.9
5695,166.8
5697,177.7
5699,98.1
5700,152.6
5702,144.5
5710,176.5
5711,105.0
5712,138.4
5714,131.7
5715,121.2
5717,114.1
5718,124.5
5719,177.4
5721,93.3
5722,163.3
5725,140.3
5726,121.9
5728,123.9
5730,90.1
5731,121.2
5732,156.8
5736,155.6
5738,162.7
5740,147.1
5741,118.9
5745,165.2
5746,113.5
5750,154.6
5752,134.2
5753,145.7
5755,150.2
5756,112.4
5758,150.0
5760,173.0
5763,94.2
5764,134.3
5765,129.1
5766,132.6
5768,94.6
5770,91.0
5772,112.1
5775,164.6
5777,126.5
5780,91.1
5782,118.0
5784,170.4
5785,100.6
5789,114.9
5790,123.9
5793,91.7
5794,158.5
5796,144.4
5798,161.0
5800,139.1
5801,106.0
5803,152.2
5804,162.4
5805,92.2
5807,108.8
5811,124.4
5814,159.2
5815,139.4
5816,159.0
5821,156.5
5822,93.6
5824,136.2
5825,172.4
5826,139.0
5827,126.5
5829,125.9
5834,175.4
5835,146.6
5838,152.4
5839,147.1
5840,91.9
5841,130.0
5842,138.6
5843,103.6
5847,119.0
5849,144.7
5851,120.4
5852,177.4
5853,139.4
5855,124.4
5856,152.3
5857,153.8
5859,108.6
5863,108.3
5865,131.7
5868,111.3
5870,154.9
5871,101.9
5873,95.0
5874,107.1
5877,126.5
5879,178.7
5881,117.0
5884,166.5
5886,135.3
5890,121.4
5891,135.7
5893,94.8
5895,159.2
5900,128.9
5901,93.8
5902,144.5
5903,154.8
5904,144.5
5905,133.5
5906,177.2
5913,143.7
5914,131.7
5915,93.7
5919,151.2
5925,100.6
5926,152.9
5927,121.4
5933,98.3
5934,165.5
5935,164.0
5938,146.6
5940,149.7
5944,178.1
5945,167.9
5946,97.1
5947,108.0
5948,167.1
5949,103.1
5951,125.1
5952,142.0
5955,99.0
5959,120.2
5962,114.8
5963,120.5
5964,129.1
5965,94.2
5968,104.7
5970,125.9
5971,106.8
5973,100.7
5976,143.5
5977,123.9
5984,126.3
5986,116.6
5989,130.9
5990,126.5
5991,151.5
5993,178.9
5994,103.2
5995,118.2
5996,144.1
5997,132.3
5999,90.6
6000,133.0
6001,114.5
6002,149.7
6003,154.0
6004,116.7
6014,139.4
6017,155.4
6019,176.3
6021,95.1
6022,137.9
6024,170.3
6027,129.1
6028,159.5
6030,172.7
6031,170.6
6032,97.2
6034,157.6
6039,154.8
6041,116.0
6042,157.1
6043,164.1
6045,141.5
6046,155.6
6048,141.9
6050,127.9
6051,161.3
6052,142.0
6053,162.4
6055,179.8
6056,101.9
6058,126.7
6059,112.3
6060,153.3
6063,141.9
6064,173.1
6065,129.1
6066,122.7
6067,177.9
6068,102.4
6069,124.6
6070,156.6
6071,117.1
6073,101.7
6075,133.8
6077,131.7
6079,140.0
6081,130.4
6083,109.4
6086,124.9
6087,126.1
6089,118.8
6092,119.8
6093,163.1
6096,125.4
6097,93.7
6099,125.6
6102,142.0
6103,129.1
6105,90.8
6108,94.0
6112,155.8
6113,169.8
6114,134.2
6117,97.9
6118,147.0
6120,113.9
6122,90.7
6123,139.1
6127,121.4
6128,100.9
6129,167.4
6131,142.8
6132,143.3
6139,152.2
6142,179.0
6143,95.3
6147,156.7
6148,147.5
6149,102.9
6152,144.5
6154,102.2
6155,144.7
6157,120.5
6164,131.7
6165,152.0
6168,159.1
6169,131.4
6171,123.4
6173,132.1
6175,143.8
6176,131.7
6178,110.8
6179,100.1
6180,148.4
6185,106.8
6188,125.3
6190,121.4
6191,94.5
6194,154.5
6197,128.7
6198,102.0
6200,177.0
6201,121.4
6202,142.0
6203,163.3
6208,134.4
6211,116.6
6214,134.2
6215,119.0
6218,163.0
6219,178.3
6222,143.1
6223,102.3
6224,118.7
6226,126.5
6229,157.2
6230,176.6
6231,115.3
6234,115.7
6239,154.8
6240,119.6
6249,136.2
6252,139.4
6255,101.2
6257,91.5
6258,140.5
6260,154.7
6261,143.6
6262,121.3
6263,121.5
6264,123.9
6265,109.0
6266,169.8
6269,166.1
6271,158.6
6277,131.7
6284,125.8
6285,126.6
6286,168.0
6288,143.7
6289,126.5
6290,151.7
6291,103.4
6292,134.4
6293,134.6
6294,118.3
6295,126.7
6298,91.1
6300,177.3
6301,136.8
6311,126.8
6313,123.9
6314,163.0
6315,165.6
6316,117.9
6321,128.1
6322,130.3
6324,116.7
6327,123.9
6331,167.7
6332,103.9
6333,127.9
6334,172.9
6335,91.4
6339,152.2
6343,107.7
6346,162.0
6351,142.0
6353,95.7
6354,135.4
6355,92.4
6357,123.7
6359,107.9
6361,90.4
6362,129.7
6364,134.2
6365,151.1
6368,147.1
6369,98.1
6371,134.7
6372,98.5
6374,128.1
6375,121.2
6376,144.5
6377,129.6
6378,95.6
6379,101.6
6382,113.0
6386,96.8
6387,112.1
6388,119.4
6389,126.5
6390,129.8
6392,113.9
6394,153.9
6395,177.2
6396,155.9
6397,122.9
6398,98.7
6399,163.0
6400,152.5
6401,178.9
6402,131.7
6406,132.1
6407,94.9
6414,123.9
6416,155.0
6422,101.1
6424,174.0
6426,116.2
6430,97.2
6431,147.9
6432,137.2
6433,141.8
6435,125.8
6436,176.8
6438,149.7
6439,174.3
6440,166.3
6441,126.4
6442,109.3
6443,119.7
6444,169.7
6445,139.8
6447,107.5
6448,119.0
6452,134.2
6454,144.7
6455,113.7
6456,150.3
6457,131.4
6458,139.2
6460,90.6
6464,116.2
6465,151.8
6466,94.4
6467,106.7
6468,111.9
6473,157.1
6476,126.5
6479,133.0
6480,132.7
6482,155.8
6483,138.8
6485,112.0
6486,90.5
6487,147.8
6489,123.9
6490,140.7
6491,104.8
6493,144.3
6494,128.9
6495,111.8
6496,107.1
6499,163.6
6501,131.7
6504,152.1
6505,144.3
6507,133.1
6510,160.8
6511,102.0
6512,140.9
6513,123.9
6514,167.5
6515,116.0
6521,93.6
6523,168.2
6525,172.9
6526,121.4
6527,119.0
6528,158.7
6529,163.4
6531,174.1
6533,170.6
6534,131.4
6537,145.6
6539,149.7
6540,143.4
6545,106.8
6547,104.9
6548,132.6
6551,142.0
6552,111.3
6554,174.0
6555,104.4
6559,154.9
6561,168.1
6562,148.7
6563,123.9
6565,94.2
6566,111.4
6567,106.4
6568,141.8
6571,112.6
6572,179.2
6573,95.9
6576,142.0
6578,145.5
6579,110.5
6585,161.9
6586,136.5
6587,116.4
6588,109.1
6589,136.8
6590,116.7
6591,149.4
6596,144.4
6598,137.3
6599,170.1
6600,90.8
6601,139.4
6602,150.5
6603,119.8
6604,118.9
6608,97.6
6611,165.8
6614,126.5
6618,152.1
6622,101.4
6624,125.0
6626,113.7
6628,172.3
6630,129.8
6634,129.3
6635,152.1
6636,146.0
6637,108.2
6638,147.1
6641,176.3
6642,101.2
6644,90.3
6645,164.9
6647,161.0
6649,178.6
6650,109.2
6651,144.5
6654,103.9
6655,159.6
6656,128.9
6657,146.3
6658,160.1
6659,172.2
6660,134.3
6663,132.1
6664,129.1
6665,109.7
6666,174.5
6668,127.3
6670,155.3
6672,153.0
6674,93.0
6675,125.9
6676,147.1
6677,173.6
6679,155.7
6681,92.5
6685,162.2
6688,131.7
6690,90.3
6691,140.3
6696,94.7
6698,124.1
6700,93.1
6701,129.1
6705,145.3
6708,105.3
6711,135.3
6713,121.4
6714,117.4
6719,146.7
6722,97.6
6724,164.2
6725,147.6
6726,118.8
6729,161.2
6731,116.8
6732,94.8
6733,170.8
6734,114.3
6738,144.5
6740,150.8
6744,168.2
6746,132.6
6747,158.3
6748,135.6
6750,128.5
6751,131.7
6752,127.8
6753,123.4
6762,173.3
6763,113.7
6764,165.8
6765,128.7
6768,104.4
6771,165.8
6774,112.1
6775,139.4
6777,126.4
6778,162.4
6779,149.6
6781,122.1
6782,166.2
6786,162.9
6788,126.3
6789,134.2
6791,176.0
6794,113.6
6795,127.0
6798,96.4
6799,141.6
6800,114.1
6801,131.7
6803,143.6
6805,148.1
6808,108.8
6810,137.0
6813,123.9
6818,109.6
6820,142.8
6821,159.3
6822,151.1
6823,157.4
6824,165.5
6825,113.7
6830,153.7
6831,165.8
6838,142.0
6839,143.8
6841,97.0
6842,143.9
6844,153.5
6846,128.5
6847,143.0
6850,145.8
6851,129.1
6852,118.3
6853,118.2
6857,168.0
6860,143.7
6861,162.0
6862,108.7
6863,129.1
6867,164.1
6868,159.8
6872,129.3
6875,109.5
6876,152.2
6877,101.9
6878,110.0
6879,143.1
6882,170.4
6888,136.8
6890,99.1
6892,99.1
6894,154.7
6895,142.7
6896,174.1
6898,138.0
6900,123.9
6901,148.6
6903,149.4
6904,171.9
6905,119.7
6906,115.9
6908,174.0
6911,110.5
6913,121.4
6914,91.5
6915,153.0
6916,106.4
6917,130.5
6918,156.7
6920,178.9
6922,168.8
6923,102.4
6924,107.4
6926,118.8
6930,143.2
6933,137.8
6934,172.4
6935,174.5
6936,117.0
6937,164.4
6938,144.5
6939,173.6
6942,104.5
6944,125.8
6946,131.5
6947,135.4
6949,134.3
6950,131.7
6951,166.3
6952,159.7
6954,137.4
6956,171.8
6957,101.6
6959,130.5
6960,147.9
6961,148.4
6963,121.4
6968,95.2
6969,149.2
6971,177.5
6972,116.1
6973,124.9
6974,94.5
6975,144.5
6976,152.8
6977,178.9
6979,108.0
6983,155.1
6988,139.4
6990,141.8
6993,123.3
6995,117.5
6996,157.3
7000,141.7
7001,134.2
7006,138.3
7008,168.3
7010,114.4
7011,92.2
7013,131.7
7015,151.2
7016,136.4
7019,151.8
7021,146.1
7025,123.9
7026,141.1
7028,161.7
7035,107.4
7037,139.4
7038,151.0
7039,111.7
7040,90.3
7042,145.9
7043,172.6
7045,103.9
7049,125.5
7051,131.7
7052,100.7
7054,165.5
7056,95.3
7063,118.8
7066,169.2
7068,127.5
7069,124.6
7071,101.9
7072,98.9
7073,119.0
7074,171.1
7075,149.7
7080,155.9
7083,151.6
7084,126.6
7088,144.5
7089,115.0
7091,134.9
7093,173.4
7098,175.2
7100,129.1
7101,119.0
7102,157.6
7108,122.3
7109,134.4
7110,99.0
7112,126.5
7116,176.9
7118,112.9
7119,128.8
7125,90.5
7126,118.8
7130,94.7
7131,137.1
7132,120.4
7133,160.8
7135,127.3
7136,137.8
7137,102.0
7138,142.0
7139,151.5
7140,122.2
7142,127.3
7143,121.8
7145,119.3
7147,103.9
7148,170.3
7149,167.5
7150,131.7
7151,113.4
7152,159.3
7153,143.0
7154,132.5
7155,116.6
7158,102.9
7162,116.2
7165,166.3
7166,108.2
7167,137.6
7170,172.1
7171,179.8
7172,91.5
7174,159.8
7175,144.5
7176,165.3
7177,163.9
7178,168.1
7179,155.7
7180,130.7
7185,176.2
7186,126.7
7188,139.4
7192,94.1
7193,146.0
7196,162.9
7200,129.1
7203,114.1
7204,172.5
7208,136.1
7209,127.0
7210,105.6
7212,161.8
7213,131.7
7219,120.0
7220,94.4
7221,145.0
7222,138.1
7223,92.7
7225,123.9
7226,144.8
7229,168.5
7230,157.2
7231,109.1
7232,150.1
7234,91.1
7237,136.8
7239,159.3
7241,147.4
7245,164.1
7246,132.8
7248,133.6
7250,121.4
7254,166.0
7256,163.9
7257,141.8
7261,133.8
7262,165.7
7263,116.2
7264,120.3
7268,103.8
7269,114.2
7272,108.9
7274,125.0
7275,147.1
7276,114.3
7278,91.2
7282,118.6
7283,93.8
7285,108.4
7286,157.8
7287,131.7
7294,124.0
7296,152.2
7297,116.9
7299,135.8
7300,116.2
7301,178.5
7304,141.6
7305,134.8
7306,147.5
7308,110.0
7310,112.6
7311,91.7
7312,121.4
7315,120.3
7316,164.6
7317,158.5
7318,94.1
7321,149.2
7323,128.9
7324,105.2
7325,116.2
7327,145.5
7329,114.3
7330,148.6
7332,162.8
7334,94.0
7337,129.1
7338,111.0
7339,98.1
7340,172.0
7345,144.0
7346,158.6
7347,119.9
7348,115.2
7350,123.9
7351,165.7
7353,91.6
7356,107.2
7357,118.1
7359,93.7
7361,98.7
7362,118.8
7366,157.0
7367,149.8
7368,132.4
7369,137.9
7373,131.4
7374,147.1
7381,144.9
7382,176.0
7388,134.2
7389,100.2
7392,117.8
7393,136.2
7394,128.3
7395,114.1
7397,171.8
7399,137.0
7400,123.9
7401,104.3
7403,90.3
7409,137.0
7410,155.2
7412,139.4
7413,165.5
7415,118.8
7416,147.7
7417,168.6
7418,152.7
7419,162.5
7420,114.9
7421,141.3
7423,104.3
7425,134.2
7428,148.2
7430,109.8
7431,177.4
7434,128.6
7437,136.8
7446,156.3
7450,123.9
7451,122.5
7452,139.4
7454,154.5
7459,158.1
7461,104.9
7462,111.1
7463,127.8
7464,133.3
7466,173.5
7467,108.9
7470,166.4
7475,144.5
7476,129.9
7481,153.0
7484,124.6
7487,139.4
7488,106.4
7489,143.1
7495,149.1
7498,147.8
7499,121.4
7505,151.3
7507,123.4
7508,178.4
7510,137.7
7511,170.4
7512,131.7
7516,158.8
7517,132.2
7524,135.1
7525,121.4
7526,116.5
7529,103.2
7531,124.3
7533,122.6
7537,126.5
7540,120.6
7541,118.1
7542,146.1
7544,143.4
7549,121.4
7550,92.1
7554,127.8
7556,103.7
7558,102.0
7561,155.2
7562,118.8
7563,109.8
7567,132.6
7571,130.5
7574,149.7
7575,135.2
7576,142.1
7579,178.3
7581,169.6
7582,110.5
7583,151.1
7584,141.6
7585,93.2
7587,134.2
7589,163.1
7590,158.7
7591,128.6
7592,164.2
7595,168.6
7596,154.3
7597,146.5
7599,130.3
7600,116.2
7602,150.4
7605,139.7
7607,162.9
7608,178.6
7609,142.3
7612,136.8
7613,153.3
7615,96.4
7618,161.2
7619,127.9
7621,118.3
7624,136.8
7625,108.2
7626,137.2
7630,179.0
7634,169.1
7635,139.0
7636,139.4
7637,146.2
7638,93.6
7639,130.7
7640,108.9
7641,136.3
7643,121.7
7646,95.8
7647,134.5
7648,95.2
7649,142.3
7650,123.9
7653,123.3
7655,178.9
7656,158.6
7659,146.4
7660,105.1
7661,164.4
7662,116.2
7665,108.9
7666,113.7
7670,136.1
7672,127.0
7674,144.5
7675,137.3
7676,167.5
7677,176.4
7682,151.7
7684,125.9
7685,103.6
7686,143.4
7687,134.2
7690,151.3
7691,106.2
7692,174.2
7693,160.8
7694,144.2
7695,146.9
7697,120.0
7698,97.9
7699,121.4
7700,169.1
7701,139.2
7704,103.9
7706,141.0
7709,161.0
7711,142.0
7712,137.1
7715,124.8
7716,149.0
7717,158.6
7721,136.0
7724,102.0
7725,129.1
7729,162.8
7730,148.4
7733,134.0
7734,172.4
7736,124.9
7737,126.5
7738,158.4
7740,176.9
7742,93.3
7743,100.7
7744,130.9
7746,101.9
7749,118.8
7750,133.3
7754,103.2
7755,139.9
7758,124.9
7759,144.6
7761,116.2
7762,110.8
7764,114.7
7766,153.6
7768,149.6
7769,166.5
7772,149.5
7774,147.1
7777,144.7
7778,130.9
7783,94.2
7785,154.2
7787,136.8
7788,94.0
7789,134.2
7792,131.4
7793,145.3
7794,167.6
7795,160.5
7796,167.9
7798,179.7
7799,121.4
7800,107.2
7802,121.9
7803,130.1
7804,162.0
7806,129.8
7807,156.6
7808,158.9
7812,139.4
7814,165.6
7823,149.2
7824,136.8
7826,169.2
7828,99.0
7830,119.6
7832,146.9
7836,129.1
7839,151.3
7842,159.1
7844,129.6
7846,171.5
7849,121.4
7851,122.2
7852,147.9
7854,137.2
7855,145.6
7860,150.8
7862,108.5
7863,156.5
7865,136.5
7866,154.0
7868,115.2
7872,94.0
7873,123.1
7874,139.4
7875,135.8
7877,108.8
7881,177.5
7882,118.0
7884,117.8
7886,131.7
7891,133.5
7896,94.6
7897,172.8
7898,99.2
7899,121.4
7902,103.7
7903,110.4
7904,148.3
7906,119.0
7908,94.4
7910,126.1
7911,149.7
7912,179.1
7913,100.2
7914,146.5
7915,125.4
7916,174.1
7917,138.0
7918,96.7
7920,93.4
7922,147.5
7924,139.4
7925,169.1
7928,130.5
7930,130.2
7932,94.8
7933,169.4
7935,110.9
7937,126.5
7941,177.6
7942,162.4
7946,146.5
7948,122.1
7949,121.4
7950,136.1
7951,113.7
7952,177.9
7953,141.7
7956,116.4
7959,172.3
7960,179.1
7961,118.8
7962,163.7
7970,128.1
7971,167.1
7973,149.7
7974,175.8
7977,163.3
7978,96.0
7984,109.6
7985,102.1
7986,118.7
7987,136.8
7988,109.7
7989,134.9
7991,149.6
7993,168.2
7994,122.0
7995,175.0
7998,122.9
7999,121.4
8003,153.6
8008,104.4
8009,171.9
8010,150.2
8011,147.1
8013,149.6
8016,111.0
8017,135.8
8019,176.6
8020,159.7
8022,108.8
8024,139.4
8026,93.4
8029,140.8
8030,98.0
8031,140.3
8035,173.0
8036,131.7
8038,149.6
8040,147.8
8042,179.6
8043,110.4
8044,105.8
8045,98.1
8046,166.9
8047,156.3
8048,96.2
8049,131.7
8051,121.2
8053,156.5
8054,138.4
8057,142.5
8059,161.7
8060,92.2
8061,116.2
8062,132.0
8063,108.7
8065,116.2
8069,124.6
8074,144.5
8077,132.4
8078,112.9
8079,105.9
8080,101.0
8081,156.9
8086,136.8
8088,141.5
8089,139.0
8090,148.5
8091,172.9
8092,133.8
8093,156.7
8095,173.1
8096,144.9
8097,128.2
8098,126.5
8102,129.8
8103,120.3
8105,175.3
8108,170.8
8111,154.8
8112,96.9
8113,149.8
8115,126.4
8123,139.7
8124,149.7
8125,148.1
8128,174.9
8131,170.2
8132,98.9
8133,160.9
8134,117.0
8136,134.2
8137,114.6
8138,133.2
8142,152.9
8147,95.3
8148,131.7
8149,143.2
8150,163.6
8151,108.3
8153,133.8
8159,130.5
8161,121.4
8164,92.3
8166,179.7
8168,143.2
8169,154.7
8170,101.3
8171,126.5
8173,139.4
8175,149.8
8176,179.7
8180,177.4
8182,159.4
8184,92.6
8186,136.8
8187,103.6
8188,176.6
8191,147.1
8192,177.2
8197,157.4
8199,126.5
8200,141.8
8206,148.1
8208,124.6
8211,154.8
8213,163.7
8214,100.5
8218,170.2
8219,127.4
8220,130.7
8221,101.1
8223,139.4
8225,157.2
8227,179.1
8229,127.2
8231,175.7
8232,90.1
8236,123.9
8237,179.8
8238,157.2
8240,172.4
8243,115.0
8245,163.0
8247,173.0
8248,102.1
8249,129.1
8253,166.4
8255,101.5
8256,151.2
8258,178.1
8259,114.2
8261,123.9
8264,143.0
8266,93.6
8267,171.0
8268,108.8
8269,129.4
8270,128.1
8271,109.9
8273,136.8
8274,127.9
8276,122.2
8278,156.6
8280,98.4
8283,167.8
8285,145.3
8286,126.5
8287,119.5
8288,147.2
8291,114.8
8292,126.3
8295,114.7
8297,92.4
8298,123.9
8300,104.8
8302,112.1
8306,167.3
8307,95.6
8309,117.4
8310,152.2
8312,125.6
8313,122.4
8314,169.4
8315,102.6
8319,162.8
8320,163.2
8323,99.9
8324,147.1
8325,124.5
8327,134.1
8331,101.5
8334,109.6
8336,134.2
8339,141.1
8341,160.4
8342,122.1
8344,171.4
8345,124.3
8346,145.1
8347,120.1
8348,139.4
8351,142.4
8360,123.9
8365,104.2
8367,106.4
8370,151.7
8371,123.8
8372,169.3
8373,136.8
8374,163.1
8375,116.9
8377,94.0
8378,109.5
8379,167.2
8380,161.4
8383,163.3
8385,119.1
8386,123.9
8387,177.6
8390,156.9
8391,120.1
8396,95.7
8397,155.0
8398,123.9
8401,108.7
8402,174.3
8403,177.2
8404,160.2
8405,173.3
8407,113.0
8408,139.4
8409,133.3
8410,106.3
8411,154.8
8412,172.0
8413,110.6
8415,90.1
8416,132.2
8418,111.7
8420,111.0
8423,139.4
8425,112.7
8426,122.5
8427,124.0
8432,156.5
8434,97.5
8435,121.4
8436,151.8
8437,116.3
8438,164.7
8441,103.4
8443,98.4
8444,113.5
8446,160.4
8447,131.2
8448,136.5
8449,134.2
8451,143.1
8453,118.5
8455,95.7
8456,168.7
8457,90.7
8458,91.3
8460,119.0
8461,129.1
8463,111.9
8464,134.6
8465,129.2
8466,98.5
8467,107.5
8468,152.9
8471,162.4
8473,139.4
8476,135.2
8477,95.4
8478,155.1
8479,138.2
8485,123.9
8487,176.9
8489,97.7
8492,108.6
8494,97.6
8498,116.2
8499,98.3
8500,95.8
8502,110.6
8504,133.3
8506,127.1
8508,146.8
8510,147.1
8511,175.1
8517,91.3
8518,161.9
8521,97.0
8522,131.0
8523,144.5
8524,94.1
8528,150.4
8532,146.8
8534,118.8
8536,129.1
8538,117.1
8539,119.8
8541,130.9
8542,94.8
8543,147.8
8546,148.7
8548,144.5
8550,90.2
8551,167.7
8555,164.0
8556,149.1
8557,112.0
8559,162.8
8560,129.1
8561,96.5
8562,174.8
8563,106.1
8564,156.9
8567,91.1
8569,93.0
8572,131.7
8573,106.6
8577,94.9
8581,176.3
8583,128.9
8586,121.4
8587,120.2
8589,148.2
8590,174.8
8595,171.9
8596,91.7
8598,116.2
8599,119.4
8602,164.8
8606,105.1
8609,156.7
8610,149.7
8611,98.6
8613,160.9
8616,92.5
8617,126.8
8620,93.3
8621,118.4
8623,139.4
8626,113.0
8630,156.5
8632,141.0
8633,91.7
8635,121.4
8636,178.5
8638,126.2
8639,170.4
8640,108.5
8643,156.6
8644,102.7
8648,134.2
8650,102.2
8651,102.3
8652,93.4
8654,179.2
8660,129.1
8661,110.9
8664,178.0
8665,101.7
8666,149.8
8667,94.2
8669,124.0
8673,131.7
8674,149.0
8677,98.6
8684,149.7
8685,123.9
8686,145.3
8691,94.2
8693,96.8
8695,158.2
8697,116.2
8698,113.0
8703,117.6
8704,110.1
8705,99.1
8707,110.5
8708,105.7
8709,106.3
8710,144.5
8713,124.1
8716,177.6
8717,161.7
8719,104.2
8721,156.0
8722,112.9
8723,136.8
8726,164.9
8727,127.1
8728,115.5
8729,101.4
8732,117.4
8733,135.1
8735,123.9
8736,116.9
8743,162.4
8748,144.5
8750,144.8
8752,128.5
8755,90.4
8756,113.7
8759,136.1
8760,136.8
8761,128.6
8770,114.1
8771,157.1
8772,134.2
8774,155.7
8775,142.5
8776,122.1
8780,129.4
8782,130.8
8784,150.3
8785,121.4
8786,146.3
8789,168.0
8790,111.8
8791,149.6
8793,139.5
8794,146.3
8798,116.2
8799,106.0
8801,132.5
8806,110.9
8807,126.4
8808,159.7
8810,147.1
8811,120.1
8812,106.0
8813,124.5
8816,176.4
8819,123.4
8821,119.9
8822,131.7
8824,166.2
8826,114.1
8827,158.8
8829,125.1
8832,104.2
8833,160.9
8835,116.2
8836,168.5
8838,136.0
8840,145.8
8842,127.5
8846,117.0
8848,136.8
8849,114.0
8850,160.4
8853,123.3
8855,112.4
8857,166.4
8858,152.8
8859,104.3
8860,129.1
8861,169.0
8862,160.0
8866,175.4
8867,173.1
8870,125.4
8871,154.8
8872,126.5
8873,150.0
8874,120.4
8879,140.5
8880,152.9
8882,153.0
8883,126.7
8885,123.9
8888,158.6
8889,169.3
8891,141.9
8893,169.9
8894,157.3
8895,103.9
8896,108.2
8897,116.2
8898,172.0
8900,157.9
8902,124.9
8903,173.1
8907,103.6
8909,142.0
8911,99.3
8912,132.7
8921,104.1
8922,131.2
8923,129.1
8924,148.0
8926,174.1
8929,175.6
8932,157.0
8935,123.9
8937,139.2
8940,110.2
8942,114.4
8943,174.6
8944,115.8
8947,152.2
8958,139.4
8959,135.0
8960,144.5
8961,128.6
8970,150.2
8971,92.4
8972,136.8
8974,160.6
8975,125.4
8979,138.5
8984,116.6
8985,126.5
8986,132.3
8987,147.5
8990,145.4
8991,157.7
8993,158.3
8995,160.9
8996,96.9
8997,116.2
8999,98.7
9000,167.4
9004,150.6
9005,135.0
9007,99.1
9008,170.7
9010,139.4
9011,136.4
9012,107.7
9013,131.6
9015,92.6
9017,92.1
9019,162.6
9020,132.7
9021,124.2
9022,134.2
9024,132.4
9025,104.9
9026,164.7
9027,90.4
9029,98.6
9032,138.3
9034,118.8
9038,128.1
9041,133.4
9042,139.9
9045,154.0
9046,140.0
9048,144.5
9049,102.6
9050,155.9
9053,141.6
9054,100.6
9055,178.1
9057,178.1
9059,125.8
9060,134.2
9070,107.7
9071,159.1
9072,123.9
9076,160.5
9077,129.8
9078,106.6
9081,147.8
9082,165.4
9084,123.9
9086,157.4
9087,179.2
9088,147.0
9089,125.0
9090,153.2
9092,121.0
9093,126.5
9094,172.5
9095,107.2
9097,118.8
9101,99.8
9102,102.5
9103,173.8
9104,167.5
9107,143.0
9109,144.5
9111,170.9
9118,91.0
9119,125.6
9121,141.5
9122,131.7
9123,135.5
9124,149.8
9125,179.4
9126,99.9
9127,147.8
9128,153.2
9129,124.5
9130,116.3
9135,116.2
9138,131.4
9143,145.8
9147,147.1
9148,130.6
9149,150.5
9151,127.1
9157,170.0
9158,110.2
9159,149.7
9161,119.6
9162,144.0
9167,93.0
9168,176.0
9169,99.7
9171,139.4
9172,121.5
9173,159.6
9181,92.5
9182,126.1
9183,154.7
9184,141.1
9185,134.2
9187,114.5
9188,142.7
9190,158.5
9191,97.3
9192,110.4
9195,114.5
9196,114.5
9197,121.4
9198,132.9
9200,149.9
9201,165.0
9204,149.1
9207,108.5
9209,139.4
9212,151.7
9215,138.0
9216,99.0
9218,94.1
9220,140.7
9221,161.7
9222,129.1
9227,113.9
9228,155.6
9232,176.0
9233,167.8
9234,121.4
9235,134.4
9236,109.5
9238,96.7
9239,112.6
9240,139.0
9241,99.3
9242,90.9
9247,152.2
9248,115.5
9254,148.9
9255,143.1
9256,149.2
9257,159.4
9259,94.3
9260,136.8
9263,118.0
9267,170.9
9268,104.5
9269,172.1
9271,103.5
9272,129.1
9275,140.6
9276,169.4
9277,166.8
9278,173.3
9280,126.4
9281,139.0
9282,93.0
9284,134.2
9285,176.8
9290,168.9
9291,144.2
9292,112.2
9296,131.7
9298,103.0
9300,175.9
9302,159.3
9303,113.2
9305,170.6
9309,144.5
9311,174.1
9313,117.2
9314,113.5
9315,104.0
9316,95.4
9317,118.7
9318,96.7
9321,95.5
9322,134.2
9323,133.0
9324,178.6
9327,98.7
9330,165.4
9332,173.5
9333,99.0
9334,121.4
9335,172.9
9337,124.4
9338,97.2
9339,160.8
9340,98.9
9344,153.2
9347,149.7
9349,97.8
9351,134.6
9352,108.3
9356,102.2
9357,153.5
9358,142.5
9359,142.0
9361,117.8
9362,166.3
9364,91.5
9367,102.2
9368,171.6
9370,150.2
9371,129.1
9377,90.4
9383,177.4
9384,142.0
9386,136.9
9388,162.3
9392,97.9
9393,98.3
9395,101.9
9396,138.0
9397,126.5
9398,166.6
9401,116.9
9402,102.3
9404,133.6
9406,152.7
9408,159.5
9409,134.2
9410,144.7
9411,177.3
9412,132.9
9413,135.9
9415,134.2
9417,116.5
9418,128.6
9420,144.5
9421,126.5
9430,111.5
9431,161.0
9432,97.2
9433,172.6
9434,121.4
9436,134.9
9439,145.3
9440,100.0
9441,178.7
9443,101.0
9444,142.0
9445,115.8
9446,112.5
9447,154.8
9451,103.7
9454,121.4
9455,168.9
9457,96.9
9458,111.4
9459,142.0
9462,172.8
9463,109.6
9465,94.6
9466,143.7
9468,129.0
9469,149.6
9470,125.0
9472,123.9
9476,126.6
9479,112.8
9482,121.0
9484,134.2
9485,105.0
9486,119.1
9487,158.2
9488,134.7
9489,118.1
9492,96.8
9496,129.1
9497,102.5
9498,122.7
9500,133.8
9504,162.8
9505,174.1
9508,139.4
9510,132.0
9513,138.9
9514,153.4
9515,114.8
9516,137.3
9519,171.9
9522,126.5
9524,128.3
9525,144.4
9526,135.6
9527,178.4
9528,143.8
9530,178.3
9532,92.8
9533,99.5
9534,118.8
9538,179.1
9541,153.1
9546,147.1
9547,120.7
9549,130.6
9553,174.5
9555,172.5
9556,108.7
9557,122.8
9559,142.0
9562,135.4
9565,169.8
9567,166.7
9570,106.6
9571,123.9
9575,147.4
9576,97.8
9579,104.0
9580,126.4
9581,158.4
9582,122.5
9584,142.0
9585,123.0
9589,113.3
9590,168.7
9594,132.9
9595,149.7
9596,126.5
9597,97.5
9598,167.3
9600,148.9
9604,114.7
9606,165.5
9609,131.7
9612,90.5
9613,163.7
9616,135.8
9618,176.0
9619,127.9
9621,116.2
9622,106.2
9623,93.6
9626,153.0
9628,130.1
9629,162.7
9633,111.1
9638,168.9
9640,90.3
9647,142.0
9648,147.4
9649,163.1
9650,126.8
9652,144.0
9654,150.5
9656,178.9
9657,162.4
9659,131.7
9663,99.0
9666,102.2
9667,102.7
9671,116.2
9674,132.5
9675,105.2
9678,135.1
9679,100.0
9680,121.6
9681,161.3
9682,104.5
9683,131.7
9684,110.6
9685,139.7
9686,106.3
9687,140.0
9688,115.6
9690,138.2
9695,132.4
9696,121.4
9697,168.0
9698,137.3
9703,122.2
9704,144.5
9708,129.1
9710,143.6
9712,92.9
9713,114.6
9714,93.5
9715,157.6
9716,114.1
9717,144.5
9718,100.4
9721,121.4
9722,123.6
9725,160.4
9730,153.4
9732,174.2
9733,121.2
9734,118.8
9735,92.7
9736,166.8
9738,159.7
9739,107.5
9740,177.0
9741,174.9
9746,147.1
9748,173.5
9750,104.8
9758,136.8
9759,147.9
9762,143.3
9764,173.1
9765,90.7
9766,173.7
9767,116.0
9769,147.6
9771,118.8
9772,174.2
9773,122.3
9775,134.0
9777,178.2
9779,143.9
9783,131.8
9784,139.4
9785,111.6
9787,101.5
9789,138.6
9790,166.6
9791,92.1
9792,117.0
9793,146.0
9794,171.9
9795,154.1
9796,129.1
9797,119.6
9799,117.1
9801,145.2
9805,168.4
9807,101.4
9808,136.8
9809,158.6
9810,158.5
9812,98.6
9813,149.0
9814,115.9
9815,140.0
9817,162.0
9820,115.9
9821,126.5
9823,169.5
9824,101.6
9826,93.3
9829,97.7
9830,135.9
9831,140.0
9833,116.2
9837,144.9
9838,92.0
9839,110.0
9842,121.0
9843,178.3
9845,140.3
9846,144.5
9851,153.9
9852,92.2
9853,179.6
9854,131.8
9856,142.7
9858,100.4
9859,139.4
9862,103.1
9863,110.0
9864,149.5
9866,155.3
9869,154.7
9871,126.5
9873,112.6
9874,172.6
9875,111.6
9876,154.8
9882,143.7
9883,149.7
9884,91.2
9886,163.3
9887,139.7
9889,176.2
9890,172.3
9895,134.2
9897,160.6
9899,143.3
9902,117.5
9906,159.1
9907,139.0
9908,126.5
9909,115.0
9912,141.8
9914,156.3
9915,165.1
9917,144.2
9918,128.7
9921,118.8
9923,147.4
9927,152.1
9930,122.3
9931,103.8
9933,121.4
9934,144.7
9937,138.9
9938,91.3
9939,96.0
9941,94.4
9942,119.8
9946,147.1
9948,131.4
9954,111.0
9955,158.1
9956,123.4
9957,170.4
9958,134.2
9962,97.5
9963,118.7
9964,130.0
9966,98.4
9968,110.0
9969,149.7
9970,118.8
9973,96.2
9974,142.9
9975,139.7
9976,102.6
9977,109.8
9978,91.8
9979,115.2
9982,133.1
9983,125.9
9984,142.0
9985,145.2
9986,147.6
9987,166.4
9989,116.6
9990,117.1
9991,159.6
9996,134.2
9997,134.9
9998,171.8
10000,119.1
10001,168.9
10004,90.8
10006,115.4
10007,106.6
10008,126.5
10010,157.0
10013,171.1
10014,105.7
10015,117.1
10018,90.4
10019,92.9
10020,97.2
10021,134.2
10022,153.8
10028,117.7
10030,154.8
10032,120.8
10034,174.8
10035,129.1
10038,125.8
10039,99.7
10041,138.1
10042,118.4
10047,115.4
10048,176.1
10049,118.8
10050,173.5
10051,124.6
10052,165.1
10053,140.7
10059,124.1
10062,134.2
10076,136.8
10077,104.6
10078,104.8
10079,130.7
10080,111.5
10083,158.7
10084,109.9
10085,103.0
10086,161.5
10087,150.8
10088,116.2
10089,126.5
10090,106.3
10092,110.0
10093,97.4
10095,147.6
10096,172.9
10097,102.5
10099,124.8
10101,94.1
10102,147.1
10105,91.8
10106,164.5
10107,144.5
10108,125.3
10110,171.4
10111,152.1
10112,144.0
10114,129.8
10115,98.9
10117,134.2
10119,116.6
10121,104.1
10122,102.5
10126,101.8
10127,117.2
10130,116.2
10134,126.7
10136,138.7
10137,159.2
10138,171.5
10140,122.3
10141,111.7
10142,105.8
10143,147.1
10145,126.6
10147,144.4
10152,132.7
10153,179.1
10154,90.4
10155,109.9
10156,101.4
10157,136.8
10159,121.9
10162,93.0
10163,109.4
10168,165.5
10170,116.2
10173,142.8
10174,135.0
10175,117.2
10176,160.2
10178,163.9
10179,90.7
10180,103.6
10183,127.6
10184,142.0
10185,150.4
10186,94.4
10191,141.9
10192,147.9
10193,109.0
10195,145.7
10197,134.0
10198,126.5
10203,133.8
10206,144.3
10207,90.2
10209,148.2
10211,113.7
10213,106.5
10215,142.4
10216,120.7
10217,99.0
10218,103.2
10219,165.8
10221,123.9
10224,142.0
10225,154.6
10227,115.3
10230,134.3
10234,136.3
10235,123.2
10237,123.9
10238,177.3
10239,117.8
10242,155.4
10245,142.1
10246,145.9
10247,170.9
10248,110.4
10251,115.7
10252,111.1
10253,160.2
10256,155.4
10257,178.0
10261,102.3
10262,111.1
10264,176.6
10265,134.2
10269,148.6
10271,132.2
10274,172.4
10276,138.1
10277,96.8
10278,113.7
10282,119.8
10283,116.1
10285,156.1
10288,165.4
10290,130.0
10291,160.4
10292,113.7
10296,100.6
10297,116.6
10299,158.1
10300,107.6
10302,145.3
10305,134.2
10307,172.1
10308,172.8
10314,150.3
10315,177.7
10316,128.5
10317,127.9
10318,128.5
10319,118.8
10321,95.3
10322,105.9
10330,132.4
10331,170.7
10333,113.7
10336,127.6
10338,101.3
10339,160.5
10341,104.4
10342,97.8
10343,153.0
10345,118.9
10346,121.4
10347,139.3
10348,126.6
10353,96.7
10355,154.9
10358,95.4
10359,116.2
10366,101.9
10369,96.2
10371,100.2
10373,134.2
10375,133.1
10379,139.2
10380,173.5
10382,92.2
10383,146.6
10384,133.0
10386,128.5
10387,126.5
10388,120.2
10390,102.2
10392,107.9
10393,133.8
10396,138.5
10399,142.7
10400,131.7
10401,96.4
10403,102.4
10404,163.7
10407,136.5
10408,115.6
10409,136.1
10412,127.3
10414,129.1
10415,172.0
10417,97.5
10419,115.7
10420,103.7
10421,118.0
10422,91.9
10423,92.6
10427,123.9
10428,157.2
10431,130.8
10436,120.3
10437,171.7
10439,141.3
10440,139.4
10441,138.4
10444,171.7
10445,103.4
10447,111.9
10448,152.8
10449,108.6
10450,113.4
10451,121.0
10452,149.3
10454,135.2
10455,134.2
10456,124.2
10457,145.1
10459,101.4
10464,133.1
10466,176.8
10468,116.2
10474,154.2
10476,99.3
10477,149.3
10479,108.2
10481,142.0
10483,151.5
10490,127.1
10491,141.3
10493,169.4
10494,126.5
10496,120.7
10499,108.9
10501,137.1
10503,93.7
10504,98.9
10508,114.7
10509,113.7
10510,168.4
10511,163.3
10512,162.3
10513,104.7
10514,128.5
10516,116.4
10518,128.8
10520,167.9
10522,144.5
10524,168.9
10525,168.4
10527,123.2
10528,162.5
10529,133.9
10532,179.4
10533,118.4
10534,121.1
10535,129.1
10537,176.6
10538,171.9
10539,134.0
10541,165.1
10542,150.5
10546,118.3
10547,157.6
10549,108.5
10551,145.2
10552,178.0
10553,113.4
10555,129.7
10556,116.4
10557,128.3
10558,104.8
10561,163.3
10562,136.8
10564,142.0
10565,153.7
10567,164.7
10569,92.0
10573,126.6
10574,102.4
10576,121.4
10577,90.5
10578,127.2
10579,101.7
10580,141.1
10581,119.4
10583,138.0
10586,120.0
10590,118.8
10595,99.9
10597,163.7
10598,94.9
10599,128.0
10600,101.4
10601,130.3
10603,139.4
10606,127.6
10615,134.3
10616,121.4
10617,143.8
10619,110.8
10620,118.8
10621,92.0
10622,129.7
10623,160.0
10624,113.2
10625,169.0
10627,168.0
10629,96.6
10630,105.9
10633,141.8
10636,117.1
10638,168.2
10639,149.1
10640,171.1
10641,106.7
10642,160.9
10643,116.3
10644,129.1
10645,134.4
10646,139.5
10647,167.1
10648,174.1
10649,152.9
10653,155.7
10657,118.8
10658,90.6
10660,172.0
10662,177.5
10664,155.1
10665,131.7
10666,168.9
10670,123.6
10671,113.7
10674,167.8
10676,116.2
10680,149.0
10684,129.1
10686,131.3
10689,108.3
10690,148.5
10691,137.7
10693,98.4
10697,113.7
10700,130.8
10701,151.3
10702,175.2
10703,178.7
10705,103.0
10709,111.9
10711,130.0
10712,111.1
10713,155.8
10714,104.0
10720,95.0
10721,141.1
10722,153.3
10723,118.5
10725,123.9
10726,154.6
10728,125.5
10730,126.0
10731,155.7
10732,91.1
10736,107.7
10737,146.7
10738,118.8
10739,150.4
10740,166.4
10741,160.5
10744,162.7
10745,128.4
10749,90.4
10751,96.1
10752,118.8
10755,102.4
10757,161.4
10759,103.6
10762,164.0
10763,165.7
10764,170.2
10765,113.7
10769,154.8
10770,136.6
10771,135.3
10774,114.2
10776,124.9
10777,112.8
10779,123.9
10780,176.8
10786,138.9
10791,108.4
10792,126.5
10794,157.7
10795,128.1
10796,130.6
10798,141.9
10800,92.1
10803,161.1
10805,105.0
10806,116.2
10808,178.0
10810,138.6
10813,126.5
10814,155.1
10816,147.4
10817,152.8
10818,124.3
10819,134.2
10822,166.7
10823,147.6
10827,112.8
10830,172.6
10832,129.1
10835,170.2
10839,168.9
10841,143.9
10845,92.2
10847,111.1
10849,178.7
10852,172.6
10856,115.2
10860,139.4
10863,154.4
10864,94.7
10865,168.0
10866,103.1
10867,145.9
10868,158.7
10869,98.4
10872,140.8
10873,134.2
10878,109.4
10881,94.5
10882,148.8
10883,170.1
10885,90.1
10886,99.7
10887,111.1
10888,119.9
10889,125.2
10890,132.8
10891,160.8
10894,137.8
10895,152.2
10896,153.8
10897,95.4
10899,169.0
10900,139.4
10905,109.5
10908,137.2
10910,135.9
10911,147.5
10912,155.5
10914,126.5
10915,93.2
10916,113.0
10918,96.1
10919,115.4
10921,114.5
10922,95.7
10926,126.5
10928,105.9
10930,170.4
10932,120.6
10935,151.8
10939,165.0
10941,136.8
10943,107.2
10944,147.1
10950,99.3
10954,123.9
10955,136.4
10957,109.6
10958,117.9
10959,118.8
10960,135.5
10961,107.7
10962,146.2
10963,91.1
10968,105.9
10973,173.0
10974,136.5
10977,118.6
10979,115.4
10981,99.9
10982,131.7
10983,165.7
10985,130.6
10989,113.6
10990,98.2
10991,173.4
10993,93.3
10995,118.8
10996,170.0
10998,161.1
10999,149.1
11000,126.4
11005,144.6
11006,152.5
11009,105.9
11011,148.1
11013,108.4
11016,153.2
11018,129.2
11019,99.6
11020,136.4
11021,125.0
11022,131.7
11026,178.3
11027,136.6
11030,128.0
11031,97.7
11033,141.4
11034,164.4
11035,113.7
11036,124.7
11037,122.1
11040,156.2
11046,136.9
11049,108.5
11050,149.8
11051,104.4
11052,95.9
11053,168.3
11055,154.7
11059,167.8
11063,126.5
11064,120.0
11066,178.1
11068,108.7
11070,107.1
11076,116.2
11077,122.1
11078,138.5
11079,142.9
11082,128.0
11084,129.6
11085,103.5
11088,123.3
11089,123.9
11091,122.8
11092,111.5
11093,112.3
11095,149.1
11096,159.3
11100,135.8
11101,115.4
11102,124.9
11103,123.9
11104,149.4
11111,98.5
11112,171.5
11113,153.0
11114,120.2
11115,93.9
11116,151.3
11117,121.4
11121,138.5
11125,114.1
11128,128.3
11130,123.9
11133,139.3
11138,144.4
11140,108.7
11142,163.3
11143,159.9
11144,129.1
11149,90.6
11153,161.0
11157,136.8
11159,120.7
11162,104.2
11164,164.3
11168,106.1
11170,134.2
11172,157.9
11173,128.7
11177,140.4
11178,148.3
11180,113.0
11184,96.3
11185,118.8
11186,123.4
11187,156.5
11188,95.5
11189,118.8
11190,168.7
11191,123.4
11192,117.0
11194,99.6
11195,111.5
11198,136.8
11199,162.3
11200,132.0
11201,107.1
11204,172.4
11206,138.2
11211,136.8
11212,140.8
11214,132.5
11217,169.7
11218,165.8
11219,147.5
11220,158.9
11221,110.1
11222,167.9
11223,166.0
11225,118.8
11226,175.5
11227,161.4
11228,132.2
11230,172.8
11234,175.5
11235,100.4
11236,169.1
11238,142.0
11240,135.1
11241,102.6
11242,101.5
11245,155.9
11250,148.7
11252,134.2
11253,172.9
11256,107.9
11258,160.2
11261,95.5
11263,129.8
11265,97.5
11266,111.1
11268,96.6
11270,164.5
11274,154.5
11275,115.1
11277,107.4
11278,150.8
11279,139.4
11282,134.0
11283,170.0
11284,176.8
11285,121.4
11286,149.3
11288,166.4
11289,152.3
11290,130.2
11292,136.8
11294,132.3
11304,158.2
11305,121.4
11306,165.1
11315,160.5
11316,171.3
11317,174.1
11319,151.0
11320,142.0
11324,142.4
11328,132.7
11331,123.9
11333,126.5
11335,153.9
11337,129.1
11338,159.5
11341,126.2
11344,131.0
11345,116.6
11346,116.2
11347,144.7
11348,155.1
11349,124.0
11352,166.9
11353,107.5
11355,160.1
11356,91.4
11357,145.3
11358,123.0
11359,104.5
11360,142.0
11362,164.2
11364,115.3
11365,102.5
11366,150.7
11368,151.4
11374,121.4
11378,122.8
11380,160.2
11383,146.2
11384,176.1
11387,108.5
11388,106.4
11391,165.4
11392,142.2
11394,158.4
11396,111.9
11397,146.1
11401,126.5
11403,91.2
11404,91.9
11406,152.4
11413,133.0
11414,111.1
11415,111.9
11420,94.5
11421,100.3
11422,134.4
11423,147.6
11424,100.3
11426,171.7
11427,113.7
11429,119.6
11431,157.1
11432,98.7
11434,96.2
11436,153.8
11439,171.9
11440,127.7
11442,129.1
11443,92.8
11444,92.9
11446,126.1
11448,140.4
11452,154.6
11454,150.2
11455,116.2
11457,166.0
11460,171.9
11462,143.8
11466,167.7
11468,113.7
11469,172.7
11470,108.3
11471,118.7
11472,135.7
11473,154.2
11478,122.2
11481,170.5
11482,118.8
11483,144.0
11484,99.7
11489,141.3
11490,132.5
11492,98.2
11493,112.7
11495,118.8
11496,111.8
11499,170.7
11501,135.5
11502,127.2
11503,147.0
11504,166.8
11505,151.1
11508,111.6
11509,129.1
11514,104.0
11515,168.9
11516,98.2
11523,123.9
11531,179.5
11533,134.5
11534,102.5
11535,149.2
11536,131.7
11537,128.1
11538,103.2
11542,136.7
11543,117.9
11544,138.5
11545,113.7
11547,170.0
11549,129.1
11550,171.1
11552,179.0
11553,134.8
11554,101.6
11557,90.2
11563,118.8
11564,163.0
11566,152.0
11568,156.1
11571,149.2
11572,91.9
11575,125.2
11577,142.0
11578,94.5
11581,117.4
11582,157.2
11584,161.1
11587,118.8
11588,143.0
11590,134.2
11592,140.4
11594,120.4
11596,108.8
11597,102.9
11598,169.0
11599,126.1
11601,148.7
11602,155.7
11603,116.2
11605,169.1
11606,152.6
11608,107.8
11609,111.1
11610,170.9
11611,166.1
11612,171.9
11613,124.3
11616,154.1
11617,139.4
11619,164.9
11622,108.1
11625,91.2
11626,171.6
11630,131.7
11634,95.1
11635,93.4
11636,94.7
11637,163.9
11638,143.0
11639,95.9
11640,129.9
11641,100.3
11643,90.3
11644,113.7
11645,174.6
11646,166.8
11653,137.9
11654,94.0
11655,137.4
11658,147.1
11661,178.4
11662,110.8
11665,152.9
11670,115.1
11671,129.1
11672,120.2
11673,169.3
11675,144.0
11676,106.2
11680,151.5
11684,108.5
11687,145.9
11689,110.7
11690,173.1
11694,153.6
11695,147.0
11697,127.5
11698,136.8
11699,98.0
11700,159.3
11701,125.5
11704,138.0
11706,147.8
11707,136.1
11708,163.0
11710,102.6
11712,121.4
11713,102.3
11714,147.2
11716,136.8
11717,121.4
11718,178.6
11721,158.5
11724,117.3
11725,113.7
11726,131.3
11731,152.8
11732,113.1
11733,131.2
11736,90.3
11738,121.3
11739,139.4
11742,154.6
11745,96.6
11746,164.5
11749,179.8
11750,93.3
11752,121.4
11753,121.4
11754,139.4
11756,109.1
11757,160.2
11758,112.0
11761,167.6
11762,128.9
11764,173.7
11765,108.5
11766,144.4
11767,145.7
11768,116.1
11772,102.6
11773,140.2
11776,178.9
11778,157.2
11779,102.6
11780,131.7
11782,128.0
11783,111.0
11785,179.9
11786,156.0
11787,122.0
11793,116.2
11795,92.6
11796,155.6
11799,126.5
11800,133.7
11801,133.1
11803,168.0
11804,135.8
11806,113.7
11816,133.1
11817,168.3
11820,126.5
11821,101.3
11823,137.8
11825,162.9
11826,109.5
11827,173.4
11830,128.9
11833,113.7
11836,137.3
11837,149.8
11838,122.2
11842,97.9
11847,116.2
11851,148.9
11853,169.1
11854,160.4
11856,104.5
11860,118.8
11862,173.2
11863,105.5
11865,104.3
11867,128.3
11868,129.1
11873,136.3
11874,121.4
11875,152.2
11876,91.0
11881,152.9
11882,107.5
11883,147.9
11884,97.7
11886,125.6
11887,126.5
11890,163.5
11891,105.2
11892,139.5
11893,147.7
11895,150.8
11897,154.3
11899,177.1
11900,116.2
11901,90.1
11902,116.2
11903,142.5
11909,162.8
11911,140.9
11914,99.6
11915,126.5
11917,119.1
11918,146.0
11920,133.2
11921,103.7
11922,119.0
11925,144.3
11926,134.6
11927,116.7
11928,129.1
11930,139.4
11931,106.9
11933,140.1
11934,176.4
11935,137.9
11936,118.5
11940,173.2
11941,121.4
11942,172.7
11943,174.7
11948,116.2
11949,159.6
11950,99.8
11952,175.3
11953,124.9
11954,133.5
11955,142.0
11956,142.4
11962,141.4
11964,175.8
11965,102.5
11968,136.8
11970,176.2
11974,167.7
11977,168.1
11978,121.6
11979,98.4
11981,138.0
11982,113.7
11984,97.2
11985,100.3
11986,177.9
11987,137.3
11988,93.5
11991,168.6
11993,122.5
11994,93.9
11996,144.5
11997,154.7
11998,106.5
11999,114.3
12002,153.4
12006,106.3
12007,175.3
12008,140.5
12009,142.0
12013,170.0
12015,121.5
12019,131.7
12021,94.5
12022,129.1
12024,111.0
12025,91.5
12027,102.7
12030,107.7
12036,154.8
12038,101.1
12040,155.8
12043,103.5
12045,147.0
12046,95.7
12049,135.6
12050,134.2
12053,165.2
12055,93.3
12056,114.8
12059,141.4
12063,113.7
12064,177.2
12065,126.1
12067,147.9
12070,121.0
12075,179.6
12076,104.6
12077,142.0
12081,166.6
12082,126.7
12089,109.0
12090,129.1
12092,100.7
12094,140.5
12096,124.6
12099,169.8
12102,91.2
12103,113.7
12106,175.7
12107,147.5
12111,91.8
12112,102.2
12118,134.2
12120,113.6
12121,105.5
12125,124.6
12128,154.0
12131,116.2
12134,102.5
12135,153.2
12136,141.7
12140,122.7
12141,132.3
12142,161.3
12144,111.1
12145,147.2
12146,179.5
12148,152.8
12151,119.4
12152,169.6
12153,152.1
12154,162.6
12156,158.6
12157,134.2
12161,117.5
12163,175.1
12165,176.5
12166,123.1
12168,126.7
12170,159.9
12171,121.4
12172,134.6
12174,94.5
12175,124.2
12177,171.3
12178,161.0
12182,122.6
12184,117.4
12185,116.2
12190,174.6
12192,109.7
12196,119.7
12198,126.5
12200,95.9
12201,124.3
12202,128.6
12207,139.4
12208,138.3
12209,164.0
12212,116.2
12213,121.9
12215,168.7
12216,107.9
12220,157.3
12225,129.1
12226,114.1
12227,107.8
12231,116.7
12233,156.7
12234,110.6
12236,174.6
12237,121.8
12238,139.2
12239,131.7
12241,128.6
12242,104.4
12243,127.5
12244,134.5
12246,129.1
12252,125.2
12253,129.1
12257,117.0
12258,118.2
12260,103.9
12262,167.5
12263,163.0
12266,126.5
12268,132.5
12271,137.2
12272,90.4
12277,135.7
12279,121.4
12280,144.8
12281,111.9
12282,159.6
12283,148.5
12286,159.4
12287,144.9
12288,109.7
12290,164.6
12291,112.7
12292,111.9
12293,136.8
12294,177.8
12295,128.8
12300,143.7
12307,139.4
12308,120.3
12309,138.2
12311,122.0
12315,158.7
12316,161.1
12317,118.7
12319,95.4
12320,116.2
12322,179.5
12328,92.9
12330,105.7
12333,114.2
12334,136.8
12337,131.7
12338,156.0
12341,90.7
12342,131.2
12343,115.2
12344,172.6
12345,158.2
12347,136.8
12348,158.3
12350,141.0
12353,152.7
12356,130.2
12358,172.3
12359,134.1
12360,123.9
12361,102.8
12362,177.5
12363,118.3
12365,147.1
12368,173.0
12370,150.0
12372,177.3
12374,90.4
12375,149.7
12377,140.6
12379,92.6
12380,128.0
12382,120.2
12384,179.4
12385,99.9
12388,136.8
12389,93.5
12392,101.9
12395,152.7
12397,90.4
12399,179.3
12401,116.2
12402,92.1
12405,106.6
12409,140.6
12410,118.0
12412,120.9
12413,169.6
12414,144.5
12415,102.5
12418,131.8
12419,113.8
12420,151.5
12426,150.5
12428,129.1
12430,110.9
12433,110.1
12434,134.2
12436,167.3
12438,158.3
12440,106.9
12441,161.8
12442,118.8
12443,155.2
12445,99.1
12446,102.8
12451,149.1
12452,141.8
12453,114.7
12455,147.1
12458,168.2
12459,126.1
12462,106.6
12463,131.5
12464,113.8
12466,139.6
12467,165.6
12468,124.2
12469,123.9
12471,106.5
12472,150.1
12473,100.0
12474,94.6
12475,122.7
12476,110.1
12479,107.3
12480,154.3
12481,121.5
12482,111.1
12483,116.3
12485,175.9
12489,113.4
12490,158.1
12491,177.9
12493,161.8
12495,136.8
12501,164.1
12502,146.3
12503,142.6
12504,119.2
12505,97.1
12510,121.4
12511,149.9
12512,173.1
12515,121.0
12517,122.2
12520,158.0
12521,109.8
12523,113.7
12524,130.8
12526,92.8
12528,158.8
12530,102.2
12532,106.8
12534,166.1
12535,127.4
12536,131.7
12542,108.0
12543,129.8
12544,124.7
12545,179.8
12546,102.6
12548,97.8
12550,116.2
12551,118.6
12555,132.8
12559,176.7
12563,118.8
12565,154.7
12567,158.6
12572,157.2
12574,158.5
12577,134.2
12580,113.2
12581,99.1
12582,157.8
12587,92.6
12588,113.2
12591,129.1
12595,100.7
12598,177.8
12600,149.0
12602,125.3
12603,91.3
12604,126.5
12609,145.9
12610,95.3
12611,141.4
12612,97.5
12614,164.9
12615,111.6
12616,161.1
12617,126.5
12618,111.1
12621,145.7
12622,120.2
12623,96.6
12624,157.0
12630,174.7
12631,126.5
12633,118.0
12636,92.9
12637,119.7
12638,145.4
12639,143.1
12640,102.9
12641,163.9
12642,172.3
12643,153.4
12645,126.5
12648,127.7
12649,110.5
12651,162.3
12652,175.3
12657,175.7
12658,131.7
12659,109.4
12662,160.3
12665,164.5
12669,137.8
12670,140.0
12671,176.2
12672,142.0
12673,117.8
12674,121.0
12677,174.2
12678,149.2
12679,148.5
12682,95.1
12685,136.8
12686,123.2
12687,163.4
12688,126.1
12689,123.0
12695,167.3
12698,121.4
12699,103.0
12700,105.8
12701,155.0
12707,99.6
12709,113.0
12710,132.4
12711,159.0
12712,142.0
12713,129.7
12716,132.0
12717,144.6
12718,95.8
12722,154.7
12723,116.4
12724,92.2
12725,115.7
12726,139.4
12729,113.3
12730,170.6
12733,136.9
12734,153.7
12735,148.2
12737,112.4
12739,123.9
12740,169.5
12742,123.5
12743,172.4
12744,97.6
12746,93.4
12747,148.8
12748,104.1
12749,178.3
12750,133.5
12751,100.7
12752,144.5
12753,147.8
12756,118.9
12759,126.7
12761,151.5
12762,100.3
12764,150.6
12766,139.4
12768,132.1
12769,101.4
12770,171.3
12773,176.4
12774,162.8
12775,171.9
12776,109.2
12778,104.6
12779,100.0
12780,126.5
12785,128.5
12788,151.7
12789,97.5
12793,152.2
12794,94.8
12801,135.3
12803,110.6
12804,145.7
12805,104.1
12806,143.4
12807,136.8
12808,112.2
12811,141.0
12812,96.8
12813,119.0
12814,109.6
12815,131.4
12818,160.0
12819,100.3
12820,118.8
12822,92.4
12824,102.3
12833,144.5
12837,136.2
12838,130.6
12839,90.1
12842,147.9
12844,121.2
12845,143.5
12846,145.7
12847,155.6
12848,126.5
12849,123.6
12851,107.7
12852,112.9
12855,118.6
12856,90.9
12859,178.9
12860,90.5
12861,113.7
12862,159.9
12863,124.0
12864,162.6
12866,112.0
12867,134.5
12869,145.2
12871,169.8
12873,157.0
12874,139.4
12877,117.9
12879,121.2
12880,95.0
12884,143.5
12885,135.3
12888,123.9
12892,130.7
12893,125.7
12897,111.4
12899,160.1
12901,113.7
12904,114.5
12907,144.4
12909,154.7
12915,134.2
12916,108.5
12917,126.7
12919,152.1
12923,151.1
12925,116.8
12926,96.2
12929,121.4
12932,154.0
12933,103.2
12934,161.0
12936,138.8
12938,98.7
12941,96.8
12942,118.8
12944,111.9
12946,139.5
12947,101.9
12949,105.5
12950,94.4
12952,157.5
12953,99.0
12955,131.7
12959,112.0
12960,123.8
12966,99.0
12968,121.4
12972,117.9
12973,103.4
12974,98.9
12976,138.2
12978,139.2
12980,122.5
12983,121.4
12985,111.2
12988,92.8
12989,139.5
12990,107.7
12991,155.8
12996,131.7
12997,169.3
13000,150.5
13003,137.1
13004,155.1
13005,147.3
13007,110.0
13008,165.7
13009,134.2
13010,111.4
13013,140.9
13015,150.1
13016,97.7
13019,174.5
13022,133.1
13023,142.0
13026,112.1
13028,124.2
13031,91.1
13033,157.4
13035,143.3
13036,129.1
13037,117.6
13038,133.7
13039,133.4
13042,94.2
13044,92.1
13049,101.6
13050,142.0
13054,113.1
13057,154.6
13058,160.2
13060,177.0
13063,172.2
13064,139.4
13067,131.1
13070,129.0
13077,121.4
13078,114.2
13081,122.9
13084,161.5
13086,161.5
13090,144.5
13094,150.4
13095,165.4
13096,118.9
13098,106.2
13100,131.3
13101,137.6
13102,97.3
13105,139.4
13106,99.9
13107,160.3
13108,157.8
13112,146.0
13113,161.9
13115,117.4
13118,118.8
13120,113.4
13121,122.7
13123,144.5
13125,102.8
13128,125.6
13131,149.7
13133,120.5
13134,164.0
13135,144.0
13136,130.8
13138,134.9
13142,111.3
13144,130.2
13145,142.0
13147,151.6
13149,100.5
13153,158.0
13155,135.1
13156,127.4
13157,102.7
13158,121.4
13160,128.3
13161,142.6
13162,126.1
13165,102.1
13166,126.2
13168,164.6
13169,173.1
13170,129.7
13171,109.7
13172,147.1
13175,92.3
13179,122.7
13180,108.7
13181,98.9
13182,139.0
13183,166.7
13186,129.1
13192,133.0
13193,115.8
13195,179.3
13198,104.9
13199,121.4
13207,102.6
13208,151.9
13209,173.5
13211,158.5
13212,152.2
13214,116.0
13216,124.3
13218,96.2
13220,116.7
13222,125.2
13223,124.3
13225,134.2
13226,134.5
13227,108.4
13230,109.7
13232,116.7
13238,151.2
13239,96.4
13240,118.8
13245,131.1
13246,160.1
13247,151.6
13248,105.7
13249,150.4
13253,139.4
13255,123.7
13256,116.6
13257,110.4
13258,144.1
13261,179.1
13266,121.4
13267,156.3
13270,108.6
13272,173.1
13274,113.6
13280,118.8
13282,92.4
13283,112.5
13284,118.2
13285,138.5
13286,140.9
13287,143.4
13288,171.2
13290,173.4
13293,136.8
13294,109.5
13297,139.6
13298,160.1
13299,110.8
13300,92.5
13301,138.7
13302,133.8
13305,144.3
13307,121.4
13309,147.7
13310,126.1
13312,110.4
13313,165.9
13317,158.9
13318,141.9
13321,113.7
13322,106.3
13323,175.7
13326,160.2
13328,153.6
13334,129.1
13337,175.3
13339,100.2
13341,147.9
13342,133.4
13347,123.9
13353,95.2
13354,119.7
13356,110.1
13361,129.1
13362,95.8
13363,171.7
13364,94.5
13367,156.9
13368,151.7
13370,142.1
13374,97.4
13375,129.1
13380,130.6
13381,101.5
13382,104.1
13383,133.2
13384,136.7
13385,91.8
13388,129.1
13391,138.3
13392,130.2
13397,142.5
13399,179.0
13401,126.0
13402,131.7
13403,94.8
13409,164.5
13410,120.1
13411,130.3
13415,126.5
13416,145.2
13417,161.1
13419,155.4
13420,149.1
13422,164.9
13426,132.9
13428,149.7
13432,115.6
13433,145.3
13439,146.2
13441,95.1
13443,142.0
13444,104.5
13446,168.1
13447,99.6
13448,101.2
13450,115.1
13451,166.8
13454,161.1
13456,123.9
13458,178.9
13460,122.0
13461,156.4
13463,139.8
13469,144.5
13477,138.1
13480,99.2
13481,174.6
13482,177.1
13483,139.4
13485,128.9
13488,134.3
13489,146.9
13491,151.6
13495,176.2
13496,123.9
13497,153.6
13501,126.6
13502,111.9
13510,152.2
13512,179.4
13513,108.0
13514,98.5
13515,143.7
13517,178.3
13518,123.0
13520,121.7
13521,163.6
13523,136.8
13524,157.0
13525,157.8
13526,99.3
13528,143.7
13529,144.8
13532,109.6
13533,172.2
13536,135.6
13537,116.2
13538,98.0
13539,165.5
13540,109.0
13541,166.8
13542,153.9
13547,148.3
13550,147.1
13554,169.8
13555,94.8
13556,137.7
13557,175.3
13558,152.8
13561,100.2
13563,136.8
13566,108.6
13567,164.1
13568,135.0
13570,128.3
13572,134.4
13573,107.0
13577,151.5
13578,123.9
13581,105.5
13583,125.0
13584,162.2
13590,152.2
13591,149.7
13592,127.9
13596,100.8
13597,165.4
13598,96.9
13602,145.3
13604,126.5
13605,137.4
13606,114.1
13609,93.3
13610,166.3
13615,117.9
13616,144.2
13618,113.7
13631,142.0
13633,95.1
13634,132.9
13636,104.7
13637,122.2
13639,116.6
13640,136.4
13641,120.0
13642,110.2
13643,152.5
13645,131.7
13646,171.3
13647,163.8
13648,111.1
13657,143.8
13658,142.7
13659,123.9
13661,158.3
13662,101.1
13663,133.4
13664,115.1
13669,155.9
13670,144.3
13671,103.9
13672,139.4
13679,172.0
13681,159.9
13682,170.3
13683,99.5
13685,126.5
13686,162.8
13687,96.3
13688,144.0
13689,156.6
13690,119.0
13697,169.3
13698,96.0
13699,121.4
13701,156.5
13702,178.3
13703,175.4
13705,112.9
13707,134.4
13708,127.9
13710,106.2
13711,174.2
13713,139.4
13714,163.7
13716,179.2
13717,153.6
13720,126.5
13722,93.4
13726,134.2
13727,152.7
13728,125.6
13729,141.4
13733,113.5
13734,113.2
13735,164.2
13737,155.1
13738,139.9
13740,129.1
13742,118.7
13744,98.4
13745,125.1
13746,159.8
13748,144.3
13750,90.8
13751,159.5
13752,132.3
13753,126.5
13757,126.0
13758,149.5
13763,120.4
13765,176.2
13766,139.4
13767,94.2
13769,142.8
13773,152.6
13775,117.5
13778,169.4
13780,142.0
13782,142.1
13783,131.8
13785,146.7
13786,172.3
13789,92.9
13790,178.7
13793,145.0
13794,136.8
13797,168.0
13798,153.2
13799,131.5
13800,147.2
13803,170.3
13805,119.6
13806,175.1
13807,152.2
13808,173.3
13812,127.7
13815,135.7
13818,96.0
13819,108.6
13820,147.1
13822,176.7
13823,132.3
13826,174.1
13830,130.8
13833,133.0
13834,126.5
13835,102.2
13836,133.1
13837,110.4
13839,116.4
13841,91.0
13842,172.8
13845,117.5
13847,148.5
13848,154.8
13849,148.2
13851,156.1
13853,175.1
13854,98.5
13856,145.5
13859,169.2
13860,165.6
13861,157.4
13862,110.7
13863,162.8
13867,127.1
13872,172.1
13873,106.6
13875,136.8
13876,111.1
13877,118.1
13880,171.2
13883,98.5
13886,139.0
13887,148.4
13888,165.1
13890,117.9
13891,114.2
13892,116.7
13894,177.5
13895,168.5
13897,114.4
13900,150.2
13901,149.7
13908,150.1
13909,104.2
13910,115.2
13911,162.8
13915,157.9
13916,134.2
13920,90.7
13921,144.1
13927,129.5
13928,121.6
13929,167.7
13932,170.5
13935,98.2
13936,150.1
13938,136.3
13940,149.2
13941,178.2
13942,157.4
13944,127.5
13945,114.7
13946,145.1
13948,141.8
13951,99.3
13956,139.4
13957,134.5
13958,107.3
13959,138.5
13960,153.6
13963,170.8
13964,132.1
13965,118.8
13970,167.7
13971,164.8
13972,102.1
13973,165.5
13975,179.1
13977,151.6
13981,146.1
13982,135.8
13983,152.2
13985,164.2
13988,124.7
13991,96.8
13996,171.2
13997,147.1
13998,160.2
13999,92.4
14001,108.0
14003,124.5
14004,145.5
14009,106.3
14010,175.4
14013,142.0
14014,179.1
14018,93.2
14022,176.1
14023,160.0
14025,111.8
14026,124.4
14028,124.3
14030,142.5
14031,174.3
14032,128.1
14036,105.6
14038,147.1
14040,105.1
14042,121.2
14043,110.9
14044,124.5
14045,141.2
14048,98.4
14050,95.9
14051,165.1
14052,164.0
14060,160.4
14061,107.3
14064,152.2
14066,150.9
14068,165.2
14073,161.4
14075,160.5
14076,117.5
14077,165.1
14078,115.2
14080,146.8
14081,103.4
14085,90.2
14086,128.2
14089,106.0
14091,170.2
14093,157.0
14095,114.3
14096,107.2
14100,162.5
14101,150.7
14102,138.5
14103,110.7
14105,162.5
14106,111.4
14109,108.8
14112,123.4
14113,174.5
14116,156.4
14118,165.1
14119,124.3
14122,171.2
14123,112.9
14124,93.4
14126,129.1
14131,162.8
14132,162.5
14133,163.1
14134,105.8
14136,112.4
14137,140.6
14138,124.5
14139,145.8
14140,102.0
14141,119.7
14143,91.9
14144,114.2
14145,170.2
14147,120.6
14152,165.0
14153,142.0
14155,121.3
14157,177.7
14158,175.4
14161,166.7
14162,147.0
14163,174.2
14164,162.6
14168,179.0
14170,144.8
14171,169.1
14172,172.9
14173,162.5
14174,165.9
14175,167.9
14177,112.4
14178,128.4
14179,171.4
14180,168.6
14181,128.0
14182,119.4
14183,119.0
14186,178.0
14188,98.7
14190,167.6
14193,126.4
14196,94.0
14197,131.2
14198,162.2
14199,175.4
14200,137.1
14201,90.4
14203,158.6
14205,161.8
14207,120.6
14208,102.3
14209,135.8
14210,131.0
14211,174.1
14212,178.7
14213,160.0
14214,156.6
14215,144.9
14216,126.2
14217,124.0
14220,176.7
14221,128.7
14225,143.0
14226,188.3
14228,145.0
14232,113.2
14234,91.5
14236,153.1
14239,131.2
14240,175.4
14241,166.8
14243,147.8
14244,168.5
14245,168.0
14246,129.0
14247,94.6
14248,166.2
14253,145.9
14254,154.8
14256,171.7
14257,97.3
14258,176.7
14260,109.3
14261,137.1
14263,161.7
14265,175.6
14267,185.7
14268,173.9
14271,130.3
14274,120.3
14277,133.2
14279,122.3
14280,175.4
14281,128.9
14283,119.3
14284,148.7
14285,96.9
14286,155.5
14287,128.0
14290,91.8
14291,98.6
14294,154.8
14296,134.2
14298,116.3
14300,140.7
14301,155.1
14304,106.3
14308,183.1
14314,115.6
14316,108.7
14319,176.9
14321,160.0
14323,145.0
14324,147.6
14325,129.1
14329,136.5
14334,144.5
14335,91.7
14339,177.9
14344,173.4
14347,119.2
14348,175.4
14352,171.8
14353,148.1
14355,160.3
14356,126.8
14357,153.7
14358,161.2
14359,110.6
14361,157.4
14369,120.9
14370,94.1
14371,164.2
14375,147.1
14376,157.4
14377,113.8
14378,106.0
14381,140.5
14382,96.5
14383,164.8
14385,138.3
14387,105.1
14389,167.7
14390,119.8
14391,130.1
14392,117.1
14395,93.0
14397,101.7
14398,95.0
14399,167.6
14401,167.3
14402,144.5
14408,138.5
14412,168.4
14414,179.9
14415,144.5
14416,128.5
14418,105.5
14420,123.9
14422,164.8
14423,136.3
14426,161.1
14429,162.5
14431,146.6
14434,158.5
14435,112.4
14437,148.2
14442,141.6
14443,144.5
14446,158.3
14447,126.6
14448,140.3
14449,94.7
14450,124.7
14453,119.1
14455,121.6
14456,139.4
14457,91.7
14458,165.6
14460,92.0
14461,97.2
14466,158.8
14467,129.5
14469,142.0
14470,144.5
14471,144.1
14472,97.6
14473,162.6
14479,148.4
14483,144.5
14486,90.1
14487,116.5
14488,172.9
14489,167.4
14490,103.3
14496,147.1
14497,168.1
14499,153.7
14501,131.4
14503,137.2
14504,158.3
14506,94.4
14510,109.5
14511,142.0
14513,119.5
14515,103.2
14518,175.1
14519,157.3
14521,109.4
14523,117.4
14524,144.5
14525,115.3
14528,146.6
14530,113.2
14532,135.8
14533,143.8
14534,157.2
14535,154.7
14536,110.9
14537,144.5
14539,138.3
14540,150.7
14544,103.5
14545,110.0
14548,129.6
14550,128.0
14551,136.8
14554,132.9
14558,165.8
14560,171.2
14563,130.4
14564,157.4
14565,109.8
14567,101.2
14569,130.2
14578,149.7
14580,115.2
14581,122.2
14583,131.5
14586,128.5
14592,131.7
14594,150.8
14598,170.1
14600,124.9
14602,174.9
14603,130.0
14605,154.8
14607,118.2
14610,93.7
14611,145.3
14616,171.9
14617,172.3
14618,147.1
14619,144.5
14621,163.2
14622,113.8
14623,134.6
14624,159.6
14627,123.7
14629,114.5
14630,115.8
14631,134.2
14634,111.5
14636,115.7
14637,135.2
14639,120.1
14640,142.9
14644,166.4
14645,130.2
14646,167.7
14647,131.4
14648,112.8
14650,164.3
14652,92.5
14653,157.8
14658,111.6
14659,147.1
14660,125.0
14662,127.8
14665,132.8
14669,92.3
14670,168.5
14672,126.5
14674,92.0
14676,168.0
14679,127.9
14681,121.9
14682,117.7
14683,130.1
14684,108.0
14686,157.4
14688,97.9
14690,118.5
14692,132.4
14693,108.7
14699,144.5
14701,159.9
14703,95.3
14704,143.0
14711,161.0
14713,131.7
14714,147.9
14715,94.2
14716,166.6
14719,156.5
14720,161.7
14721,123.5
14722,122.1
14725,135.6
14726,111.8
14727,154.8
14728,116.1
14729,113.7
14731,112.0
14734,178.5
14736,162.0
14738,148.9
14739,128.0
14740,136.8
14741,112.1
14742,175.8
14745,172.2
14746,167.8
14748,101.7
14750,127.0
14753,126.5
14754,178.5
14755,146.8
14757,172.4
14762,150.4
14763,91.2
14764,176.2
14767,152.2
14770,113.4
14775,92.6
14778,180.0
14779,156.3
14781,134.2
14782,96.3
14786,156.2
14790,163.3
14791,142.6
14794,126.5
14796,157.8
14799,122.6
14801,127.9
14808,139.4
14809,97.1
14817,152.0
14818,143.8
14819,141.1
14821,131.7
14826,156.2
14829,165.0
14830,179.4
14832,97.8
14835,131.7
14840,99.2
14842,169.8
14844,135.2
14847,157.4
14849,142.0
14851,130.3
14853,173.6
14854,126.2
14858,96.9
14859,155.7
14860,132.3
14862,147.1
14864,128.3
14867,98.4
14869,147.9
14872,148.3
14875,144.5
14876,136.0
14877,150.2
14878,115.3
14882,131.5
14884,142.5
14887,126.0
14888,142.0
14889,148.6
14890,160.4
14894,124.5
14898,169.7
14899,153.7
14902,91.4
14903,154.8
14904,123.6
14907,102.0
14908,126.4
14909,178.0
14913,142.8
14916,154.8
14917,91.5
14918,147.8
14920,96.1
14922,154.6
14924,153.1
14926,152.2
14928,90.3
14929,136.8
14931,106.2
14932,153.4
14934,134.7
14935,171.7
14940,167.0
14943,154.8
14945,118.4
14946,165.4
14947,151.2
14948,146.1
14949,128.0
14955,172.3
14956,157.4
14957,96.0
14958,94.9
14960,96.1
14961,168.8
14963,137.9
14966,123.8
14969,117.7
14970,142.0
14972,117.7
14973,168.1
14975,109.2
14980,143.2
14981,98.1
14983,130.8
14984,167.7
14986,156.7
14987,120.6
14988,113.5
14989,116.9
14991,117.2
14992,101.5
14993,106.9
14994,144.5
14995,115.4
14996,91.5
14997,147.1
14998,170.7
15000,168.6
15003,105.0
15008,155.0
15010,126.5
15012,160.5
15014,133.3
15015,110.3
15018,122.2
15022,97.4
15024,160.0
15027,172.4
15029,151.4
15030,157.9
15031,126.6
15032,117.9
15035,168.0
15038,154.8
15040,134.7
15041,117.2
15043,108.3
15044,177.2
15047,172.7
15048,96.9
15049,150.7
15050,90.8
15051,131.7
15057,122.0
15059,123.6
15060,114.1
15061,175.0
15065,160.0
15066,127.7
15069,118.6
15070,163.3
15071,121.4
15073,175.6
15074,174.2
15075,159.8
15076,122.8
15077,105.1
15078,152.2
15082,100.7
15083,139.5
15085,119.5
15088,168.9
15090,162.6
15091,131.7
15092,95.2
15093,142.0
15097,117.3
15099,169.8
15105,161.4
15106,160.0
15108,96.8
15110,105.4
15112,179.8
15117,178.1
15118,119.7
15119,142.0
15121,162.7
15125,165.6
15128,177.6
15129,100.0
15132,136.8
15135,131.5
15136,158.2
15137,106.0
15138,138.4
15139,174.8
15141,98.7
15144,109.8
15145,152.2
15152,137.9
15155,175.9
15158,98.3
15159,134.2
15160,170.2
15165,158.9
15166,155.9
15167,179.3
15168,176.4
15170,95.9
15171,113.2
15173,139.4
15175,124.7
15177,113.3
15179,153.3
15180,178.4
15182,105.6
15184,172.3
15185,99.3
15186,154.8
15188,144.7
15191,123.3
15194,131.7
15195,165.7
15200,144.5
15205,178.0
15207,166.2
15208,165.6
15209,156.2
15210,99.1
15213,142.0
15216,95.7
15217,118.3
15218,132.5
15219,107.4
15220,98.2
15222,97.8
15224,155.1
15226,142.0
15227,97.9
15228,112.5
15230,119.9
15231,147.7
15232,122.6
15233,166.4
15234,175.7
15235,118.9
15236,93.5
15239,95.3
15241,139.4
15243,117.7
15245,90.9
15248,129.7
15250,97.9
15254,144.5
15258,154.1
15259,170.4
15261,145.5
15262,169.9
15263,126.7
15266,145.3
15267,136.8
15268,117.3
15270,159.1
15276,118.8
15281,149.7
15282,126.6
15283,165.5
15284,128.9
15285,157.4
15287,117.5
15294,157.4
15295,178.9
15296,117.3
15297,160.5
15298,156.8
15301,106.5
15304,143.2
15305,102.7
15306,174.5
15308,139.4
15310,167.2
15311,143.8
15312,120.7
15318,95.0
15322,160.0
15328,117.6
15329,97.4
15330,145.6
15335,157.4
15337,156.0
15338,99.3
15340,127.7
15342,99.4
15343,152.5
15345,124.4
15346,147.7
15348,139.4
15349,152.1
15360,98.4
15362,170.2
15364,95.3
15365,157.8
15367,165.6
15370,153.2
15374,137.4
15376,157.4
15377,101.9
15379,149.8
15383,102.1
15387,156.6
15388,126.4
15389,144.5
15393,102.7
15394,164.2
15396,173.3
15397,103.7
15398,97.5
15400,162.9
15403,175.4
15406,122.0
15407,147.4
15409,105.3
15412,160.4
15414,165.2
15416,160.0
15423,141.2
15424,124.3
15425,103.1
15429,136.8
15430,137.6
15433,146.8
15435,134.7
15437,162.0
15438,153.8
15439,157.1
15440,91.0
15443,162.5
15450,141.2
15451,102.5
15454,162.0
15455,147.0
15456,174.3
15457,142.0
15458,147.0
15459,134.3
15460,158.4
15461,139.6
15462,131.0
15464,153.3
15468,104.2
15469,92.7
15470,129.1
15471,176.4
15475,149.5
15479,172.2
15481,114.1
15482,120.6
15483,154.8
15486,134.4
15488,101.6
15489,162.5
15491,140.1
15493,174.5
15495,103.0
15496,121.5
15497,134.2
15498,116.6
15500,106.8
15502,154.5
15504,94.0
15505,150.9
15506,136.1
15509,173.3
15511,121.4
15513,147.8
15514,153.6
15516,103.3
15518,146.9
15523,136.4
15524,144.5
15527,91.4
15530,124.2
15535,115.9
15536,92.6
15537,161.2
15538,129.1
15539,164.9
15540,113.6
15541,127.7
15542,122.3
15547,117.0
15548,132.9
15550,130.6
15551,131.7
15552,162.4
15553,152.3
15554,144.6
15558,120.7
15560,154.6
15563,92.1
15564,147.1
15565,168.4
15566,147.1
15567,177.5
15568,142.6
15570,119.7
15571,125.3
15573,151.9
15574,108.4
15575,98.4
15576,125.0
15577,146.4
15579,139.4
15580,121.9
15581,162.5
15582,109.9
15585,140.3
15586,137.8
15588,173.4
15589,129.9
15592,134.2
15599,169.2
15601,121.3
15602,152.8
15603,172.0
15605,142.0
15606,145.2
15608,164.7
15609,96.7
15610,125.0
15616,176.3
15618,127.5
15619,147.1
15621,101.5
15623,173.5
15626,165.9
15627,92.1
15629,97.9
15632,152.2
15634,98.8
15636,155.4
15640,107.4
15641,124.4
15642,173.0
15646,142.0
15647,133.4
15648,143.0
15657,149.9
15660,152.2
15665,130.2
15666,169.4
15667,157.8
15668,145.4
15670,109.3
15673,144.5
15674,91.5
15675,119.6
15676,158.4
15677,155.7
15678,167.1
15681,136.9
15684,161.8
15686,126.5
15687,158.9
15688,155.7
15689,140.4
15690,175.6
15691,141.3
15692,117.7
15695,143.0
15697,157.8
15699,113.4
15700,157.4
15702,162.8
15706,155.8
15707,176.1
15710,111.0
15713,129.6
15714,152.2
15719,140.5
15722,143.0
15723,169.4
15724,176.2
15725,126.8
15727,139.4
15729,109.4
15730,95.1
15732,140.8
15735,155.6
15740,162.5
15741,101.3
15743,155.7
15744,134.4
15746,162.7
15747,113.0
15748,135.9
15750,136.5
15754,147.1
15758,163.3
15760,137.6
15761,159.3
15763,165.1
15767,119.9
15768,129.1
15770,152.0
15774,103.4
15775,170.2
15776,123.1
15777,149.7
15780,149.6
15781,160.0
15782,149.7
15784,168.5
15792,104.3
15794,171.6
15795,144.5
15798,154.5
15799,171.1
15802,158.4
15804,100.0
15805,109.7
15807,112.1
15808,126.5
15810,108.9
15811,129.3
15812,135.9
15813,120.9
15817,138.2
15820,116.8
15821,154.8
15823,174.8
15824,128.0
15829,171.6
15831,147.5
15836,139.4
15841,135.2
15842,145.0
15846,125.9
15849,131.7
15854,119.2
15855,139.6
15857,133.2
15860,114.2
15862,154.8
15865,115.3
15866,119.3
15875,141.7
15876,136.8
15878,120.1
15880,97.1
15881,122.2
15884,108.1
15885,174.4
15886,119.0
15889,121.4
15893,121.0
15900,160.9
15901,119.7
15903,139.4
15907,146.6
15908,173.1
15911,153.0
15914,134.0
15916,138.4
15917,129.1
15919,131.2
15920,114.9
15922,177.0
15927,95.8
15928,147.3
15930,126.5
15931,177.4
15933,124.7
15935,169.9
15938,173.6
15940,128.6
15941,119.1
15942,100.8
15943,134.2
15947,157.3
15948,100.6
15949,145.5
15950,134.4
15951,113.1
15955,110.2
15956,123.9
15957,145.2
15963,122.0
15965,118.6
15966,159.1
15967,160.1
15969,129.2
15970,169.8
15971,126.5
15972,145.0
15975,129.7
15978,143.9
15979,111.4
15982,155.0
15984,131.7
15985,172.2
15990,94.5
15991,176.0
15992,121.6
15993,135.4
15994,106.5
15997,142.0
16000,165.2
16006,125.6
16009,107.3
16011,144.5
16012,93.4
16020,158.3
16021,119.5
16024,131.7
16029,132.8
16031,147.5
16034,105.5
16035,115.3
16037,101.4
16038,152.2
16039,115.3
16040,138.7
16041,157.1
16043,117.5
16045,149.7
16047,105.1
16048,124.3
16050,139.8
16051,141.1
16052,154.8
16053,136.8
16055,112.9
16057,148.9
16058,94.4
16061,97.5
16063,147.0
16064,135.6
16065,134.2
16066,93.0
16067,90.7
16072,108.4
16077,171.9
16078,162.5
16082,139.8
16086,96.5
16087,166.9
16088,168.3
16089,129.5
16090,111.8
16092,149.7
16093,161.5
16094,137.4
16095,126.0
16096,157.2
16097,99.4
16099,121.1
16102,113.5
16103,127.5
16106,126.5
16108,91.4
16109,112.1
16113,103.9
16115,125.4
16117,145.4
16119,154.8
16121,129.4
16123,167.0
16124,173.8
16126,164.2
16128,126.3
16129,153.0
16130,134.6
16132,94.3
16133,147.1
16140,119.9
16142,108.6
16144,173.3
16145,166.7
16146,123.9
16151,116.9
16153,141.6
16154,99.6
16155,152.2
16159,149.7
16160,154.0
16161,163.9
16168,121.4
16173,130.0
16174,134.2
16175,146.4
16176,151.5
16177,162.3
16180,122.8
16182,93.8
16184,178.3
16186,169.2
16187,118.8
16188,175.4
16191,177.3
16194,155.0
16196,166.5
16198,148.4
16199,149.1
16200,147.1
16201,140.1
16204,167.5
16205,150.6
16206,130.9
16209,168.7
16210,139.4
16213,98.0
16214,134.2
16215,104.3
16220,106.4
16224,113.4
16226,174.8
16227,123.9
16230,123.4
16231,133.0
16232,136.1
16237,116.0
16240,125.6
16241,144.5
16243,130.1
16245,144.9
16246,164.9
16251,164.8
16254,129.1
16256,164.7
16257,97.4
16258,160.3
16262,140.6
16265,141.3
16266,99.0
16267,135.4
16268,131.7
16269,131.0
16270,123.7
16271,96.2
16274,141.5
16277,151.9
16280,116.9
16281,149.7
16282,161.4
16283,144.4
16284,104.9
16288,108.5
16290,99.0
16292,172.6
16293,145.8
16294,136.8
16299,106.0
16301,158.3
16302,158.4
16303,136.6
16305,148.0
16309,129.1
16311,149.7
16312,132.8
16313,129.6
16314,129.1
16318,124.1
16320,118.7
16321,170.8
16322,134.2
16323,133.3
16324,122.5
16326,117.3
16327,145.1
16328,148.4
16334,153.8
16335,131.7
16337,147.5
16340,117.5
16341,178.6
16342,128.9
16344,132.4
16345,134.3
16347,120.3
16348,126.9
16349,139.4
16353,140.7
16357,175.6
16358,155.3
16359,164.7
16362,131.7
16363,113.9
16364,145.1
16366,170.8
16367,133.8
16370,175.2
16371,152.5
16375,116.9
16376,139.4
16378,100.1
16381,108.9
16382,143.4
16383,132.0
16388,179.5
16390,147.1
16391,149.8
16393,99.9
16396,175.5
16398,147.9
16400,131.6
16403,136.8
16410,167.3
16415,159.0
16416,157.4
16417,145.3
16419,113.7
16421,149.7
16423,163.7
16425,149.3
16426,152.5
16429,133.5
16430,152.2
16431,105.6
16440,174.8
16443,132.1
16444,131.7
16447,135.0
16449,126.1
16450,99.3
16452,120.8
16453,148.3
16455,155.8
16457,152.2
16458,133.9
16459,98.6
16460,138.1
16462,168.8
16463,123.7
16465,109.3
16466,149.9
16468,103.6
16469,167.5
16471,142.0
16474,138.3
16475,177.0
16476,121.5
16477,91.6
16478,159.8
16480,157.5
16481,160.7
16484,131.7
16486,165.3
16487,133.7
16488,143.8
16489,165.0
16492,122.6
16493,135.1
16497,162.5
16502,148.8
16506,126.2
16507,104.0
16509,170.8
16512,142.0
16513,137.8
16514,171.8
16515,146.5
16517,100.6
16518,107.4
16521,105.1
16522,109.2
16525,118.8
16529,156.2
16530,160.8
16535,147.4
16538,149.7
16539,130.0
16540,117.1
16543,131.9
16544,112.6
16545,162.6
16546,179.7
16547,130.0
16550,154.5
16551,139.4
16554,112.9
16556,178.1
16557,150.2
16558,134.0
16559,162.8
16561,163.8
16563,112.1
16566,121.4
16569,116.2
16570,140.0
16573,154.2
16575,141.5
16578,179.5
16579,147.1
16580,136.6
16591,109.5
16592,136.8
16596,174.5
16600,123.6
16601,159.0
16602,93.3
16604,131.5
16606,126.5
16609,107.2
16610,164.2
16611,99.1
16613,97.0
16617,121.3
16619,152.2
16622,151.0
16623,149.3
16626,93.5
16627,99.4
16628,157.5
16629,174.6
16631,131.4
16633,136.8
16641,161.2
16642,114.3
16646,93.0
16647,126.5
16651,138.9
16653,153.1
16656,106.0
16657,137.6
16659,118.2
16660,139.4
16663,98.8
16665,171.3
16668,104.0
16671,157.4
16673,129.1
16676,122.9
16677,162.9
16679,111.3
16682,139.5
16685,161.2
16687,129.1
16691,142.7
16692,130.1
16695,150.9
16696,121.8
16697,107.8
16698,128.6
16699,180.0
16700,123.1
16701,139.4
16702,150.6
16703,122.0
16707,137.4
16711,126.7
16712,134.0
16714,142.0
16719,130.9
16720,102.0
16721,138.4
16722,114.3
16723,97.7
16725,109.2
16726,162.1
16727,163.8
16728,139.4
16729,157.8
16732,145.1
16733,96.7
16741,131.7
16745,107.1
16746,144.3
16749,172.0
16754,147.1
16756,117.9
16757,134.3
16758,117.9
16760,145.3
16764,128.9
16766,166.6
16768,173.1
16769,149.7
16778,118.2
16779,154.1
16780,155.4
16782,131.7
16783,127.3
16784,159.2
16786,169.6
16789,175.6
16790,114.1
16792,176.7
16793,107.6
16795,149.7
16796,159.1
16797,177.6
16800,150.1
16802,149.8
16803,172.3
16804,150.6
16806,110.5
16808,144.5
16809,122.8
16810,146.6
16811,165.9
16813,140.5
16815,103.8
16817,164.2
16818,136.2
16821,177.7
16822,126.5
16826,120.8
16832,175.4
16834,150.2
16835,111.4
16836,152.2
16837,155.7
16838,162.9
16839,175.1
16842,153.7
16844,162.0
16846,102.7
16849,136.8
16850,135.6
16852,158.7
16855,125.1
16859,174.5
16860,99.3
16861,162.9
16863,116.2
16864,150.5
16868,176.1
16873,161.7
16876,147.1
16881,105.0
16883,113.7
16887,149.2
16889,136.8
16891,119.0
16892,104.3
16894,124.0
16895,173.1
16896,142.7
16898,161.1
16899,139.2
16900,162.5
16904,126.5
16912,103.2
16915,120.0
16917,152.2
16918,145.7
16920,117.6
16921,177.9
16922,158.3
16924,130.6
16928,113.8
16929,146.6
16930,131.7
16934,124.0
16935,123.5
16936,109.3
16939,123.7
16940,163.7
16942,115.2
16943,173.2
16944,121.4
16950,99.8
16955,98.8
16957,149.7
16959,159.5
16961,137.9
16962,166.5
16963,171.5
16965,120.8
16966,109.2
16967,172.9
16968,106.9
16969,177.0
16971,131.7
16973,151.8
16978,103.0
16979,108.5
16980,164.3
16981,147.9
16982,99.0
16983,143.4
16985,121.4
16987,130.0
16993,175.6
16996,128.6
16998,142.0
17000,117.1
17003,99.0
17007,160.1
17008,115.2
17011,126.5
17012,134.7
17013,97.2
17014,124.4
17015,102.1
17016,92.5
17017,96.7
17018,149.6
17019,111.9
17021,111.9
17022,114.0
17024,95.4
17025,121.4
17027,98.8
17028,106.6
17032,105.2
17034,108.6
17037,125.0
17038,107.6
17039,139.4
17043,135.7
17044,169.1
17046,125.5
17052,136.8
17056,116.2
17060,171.7
17063,94.2
17065,131.7
17068,141.6
17069,179.2
17071,149.5
17075,133.5
17076,99.8
17079,131.7
17080,138.9
17082,159.8
17085,123.9
17087,156.6
17088,123.6
17089,133.5
17090,148.9
17091,152.0
17092,134.2
17093,95.9
17094,127.4
17099,176.3
17100,134.9
17102,93.8
17104,139.1
17105,166.1
17106,142.0
17109,125.5
17113,94.4
17114,117.0
17116,135.1
17117,163.3
17120,136.8
17121,110.0
17125,110.4
17126,164.4
17127,104.6
17129,166.0
17131,148.9
17133,147.1
17135,161.6
17140,113.1
17142,128.6
17143,116.9
17145,143.0
17146,142.0
17147,97.5
17148,93.3
17149,154.6
17151,151.6
17152,110.8
17153,151.4
17157,124.8
17160,126.5
17161,172.1
17162,161.6
17163,141.2
17165,176.9
17167,154.7
17168,157.6
17171,148.1
17174,152.2
17176,110.7
17181,101.8
17187,149.7
17189,163.3
17190,179.8
17192,153.5
17193,143.7
17195,151.4
17199,101.1
17201,126.5
17202,96.2
17203,167.7
17204,140.3
17206,99.0
17209,125.7
17211,139.0
17214,154.8
17215,142.2
17221,131.8
17222,91.0
17223,115.0
17225,100.6
17227,139.4
17228,119.9
17230,112.2
17232,143.9
17233,147.4
17234,125.8
17237,102.5
17239,168.7
17240,175.7
17242,123.9
17243,126.1
17244,90.3
17248,105.7
17249,128.1
17251,156.1
17253,158.1
17255,157.4
17256,139.5
17258,135.9
17259,123.0
17260,114.9
17262,90.9
17263,167.8
17264,173.5
17267,110.9
17268,149.7
17271,159.5
17275,123.1
17276,110.8
17278,135.3
17280,116.8
17281,151.4
17282,126.5
17283,145.9
17284,97.4
17285,126.7
17288,130.4
17289,169.7
17292,119.4
17294,97.6
17295,149.7
17298,118.0
17300,172.6
17303,124.0
17308,109.6
17309,136.8
17317,152.1
17318,121.1
17319,92.3
17322,104.7
17323,126.5
17324,97.3
17326,94.2
17327,162.7
17328,98.0
17330,172.0
17331,112.0
17335,97.8
17336,152.2
17337,119.7
17339,136.2
17343,147.1
17344,153.6
17346,141.0
17347,91.1
17349,131.7
17351,109.8
17354,162.7
17356,167.6
17362,121.4
17363,130.8
17364,134.4
17365,134.4
17366,167.1
17369,152.9
17370,107.3
17374,121.1
17376,135.0
17377,139.4
17383,171.7
17384,170.4
17385,117.3
17387,101.7
17390,129.1
17393,171.9
17398,152.9
17399,90.4
17400,98.4
17401,125.3
17403,129.1
17406,138.7
17407,110.9
17409,147.1
17410,140.0
17411,118.9
17412,111.5
17414,124.7
17415,113.3
17417,139.4
17420,158.0
17423,130.8
17426,164.9
17428,131.2
17430,167.9
17431,131.7
17436,129.2
17437,95.5
17439,124.9
17440,110.2
17442,119.2
17444,129.1
17445,175.9
17446,165.9
17447,173.8
17451,161.9
17454,131.0
17458,134.2
17461,147.2
17462,165.8
17463,165.8
17464,147.5
17465,132.5
17468,111.3
17469,110.5
17470,105.9
17471,136.8
17472,142.2
17475,127.8
17476,164.6
17482,155.3
17483,120.0
17484,152.2
17485,157.9
17486,135.0
17488,178.2
17491,179.5
17493,120.6
17497,160.2
17498,117.2
17499,139.4
17502,115.3
17503,138.0
17504,93.9
17505,117.3
17506,168.6
17507,129.5
17512,149.7
17513,162.2
17515,165.9
17518,138.7
17522,179.2
17524,124.8
17525,147.1
17526,167.1
17527,166.1
17532,104.6
17534,94.6
17536,143.5
17539,134.2
17542,166.4
17546,170.2
17549,122.4
17552,160.0
17554,142.2
17557,170.1
17559,162.2
17561,127.2
17563,100.6
17565,99.7
17566,144.5
17571,133.6
17572,179.4
17573,132.5
17574,117.6
17575,130.5
17578,116.1
17580,126.5
17581,156.9
17583,127.6
17584,131.5
17586,136.1
17589,161.1
17590,103.7
17593,152.2
17594,124.9
17597,141.9
17599,116.6
17600,120.4
17602,174.9
17603,151.2
17604,158.2
17605,142.2
17606,142.0
17614,144.8
17616,113.2
17619,126.5
17620,151.7
17621,137.6
17622,121.4
17625,127.5
17626,165.9
17630,124.1
17634,157.4
17636,143.1
17637,143.8
17640,173.0
17643,175.8
17645,154.6
17646,126.7
17647,136.8
17648,109.7
17649,101.9
17650,126.9
17651,139.3
17652,93.0
17654,159.1
17655,129.9
17656,129.7
17660,118.8
17662,131.1
17668,143.7
17670,132.2
17671,158.1
17672,108.5
17674,147.1
17675,140.9
17676,164.3
17677,103.0
17678,110.1
17680,132.2
17681,106.5
17682,157.1
17683,158.3
17684,130.0
17685,150.3
17686,97.7
17687,126.5
17688,175.2
17689,158.3
17690,179.0
17696,101.1
17697,139.9
17698,127.7
17699,106.9
17700,161.4
17701,134.2
17703,126.6
17704,177.0
17705,148.8
17706,105.1
17709,108.2
17710,110.9
17712,151.6
17713,159.9
17715,152.2
17717,94.7
17723,102.9
17728,131.7
17731,145.5
17735,173.6
17736,112.7
17737,124.1
17740,160.9
17741,129.1
17742,163.3
17746,170.1
17750,165.1
17751,175.7
17752,124.0
17755,147.1
17756,178.6
17757,113.3
17758,110.4
17760,172.5
17762,125.9
17763,120.9
17766,101.7
17767,120.7
17768,138.4
17769,136.8
17770,125.3
17771,160.1
17772,143.9
17773,98.1
17774,135.5
17775,111.8
17776,154.4
17779,94.4
17780,160.7
17782,134.2
17783,167.5
17784,113.8
17788,137.8
17789,164.5
17791,120.3
17793,137.9
17795,160.2
17796,136.8
17800,120.7
17801,99.6
17802,176.6
17807,146.9
17809,136.8
17810,158.8
17812,136.8
17813,90.9
17816,105.0
17818,121.5
17819,118.0
17820,102.9
17822,139.4
17823,162.2
17828,119.2
17830,177.7
17836,126.9
17837,139.4
17841,179.4
17842,177.4
17850,147.1
17852,122.9
17853,162.1
17856,133.2
17857,167.4
17858,175.6
17859,139.6
17860,147.4
17861,130.2
17862,125.7
17863,142.0
17864,151.1
17867,93.8
17868,155.0
17870,175.6
17871,105.2
17872,112.4
17873,96.8
17874,133.2
17876,126.5
17885,171.2
17886,98.4
17889,177.2
17890,147.1
17892,171.3
17894,140.4
17897,176.8
17901,173.0
17904,144.5
17905,175.6
17908,159.8
17909,149.6
17910,138.6
17911,132.5
17912,137.2
17914,133.6
17915,172.8
17916,136.7
17917,129.1
17918,108.3
17919,161.8
17920,96.9
17922,162.1
17923,162.5
17926,141.1
17927,161.7
17930,105.6
17931,160.0
17934,163.6
17937,132.7
17938,150.0
17942,125.3
17943,117.0
17944,147.1
17945,128.4
17949,111.1
17950,158.4
17952,138.8
17953,135.6
17955,132.4
17957,129.1
17960,91.7
17963,97.1
17965,93.7
17967,137.4
17969,118.1
17972,157.4
17973,151.6
17974,103.5
17977,91.9
17978,151.3
17980,155.8
17981,149.0
17984,90.3
17985,149.7
17987,155.1
17989,134.0
17990,116.8
17993,175.2
17998,129.1
18000,96.0
18001,114.8
18005,134.8
18008,102.4
18009,167.8
18012,154.8
18013,96.1
18016,168.2
18017,114.2
18019,127.4
18022,168.7
18023,118.8
18025,139.4
18026,156.6
18029,160.2
18031,122.0
18032,126.5
18038,151.2
18039,129.1
18040,130.3
18041,114.8
18042,164.3
18049,110.7
18053,154.8
18055,154.9
18058,95.0
18060,138.1
18062,159.0
18063,116.3
18066,136.8
18067,138.9
18069,174.5
18072,107.0
18076,91.2
18077,177.1
18078,135.7
18079,123.9
18082,134.4
18084,171.2
18086,152.0
18089,109.5
18091,138.1
18092,148.0
18093,142.0
18094,128.4
18107,129.1
18108,161.6
18110,167.8
18111,120.2
18114,178.0
18117,103.8
18119,102.1
18120,121.4
18122,133.7
18123,114.1
18125,149.7
18127,120.8
18128,153.3
18134,144.5
18135,145.9
18136,131.4
18138,98.6
18139,94.0
18144,99.6
18145,128.9
18147,134.2
18148,144.8
18151,166.2
18152,133.5
18153,101.9
18159,145.6
18160,134.2
18164,121.5
18165,141.4
18166,94.2
18167,166.4
18174,139.4
18176,103.9
18177,155.1
18179,121.8
18182,111.4
18183,153.5
18186,177.3
18188,139.4
18191,130.5
18193,90.3
18194,114.2
18196,148.3
18197,107.8
18199,132.9
18200,120.6
18201,144.5
18203,104.5
18214,134.2
18215,171.9
18216,120.9
18218,176.8
18228,147.1
18229,146.8
18230,123.5
18231,119.0
18233,101.2
18239,128.6
18241,109.0
18242,152.2
18245,144.4
18251,129.9
18252,115.4
18255,142.0
18258,104.8
18259,91.7
18265,160.9
18266,120.1
18269,160.0
18275,174.3
18281,117.2
18282,147.1
18284,167.3
18288,179.5
18289,176.7
18290,172.3
18292,116.9
18293,163.0
18295,164.4
18296,126.5
18300,142.5
18310,154.8
18313,104.3
18314,101.7
18317,144.1
18318,136.5
18319,139.1
18323,147.1
18324,152.4
18326,106.0
18327,148.8
18328,175.7
18331,177.1
18333,172.3
18334,155.5
18335,111.2
18336,123.9
18340,173.2
18343,129.1
18345,161.0
18346,133.2
18350,154.8
18353,169.4
18355,113.2
18356,107.2
18358,117.5
18359,146.7
18364,149.7
18365,120.8
18368,117.4
18377,131.7
18378,170.7
18385,136.7
18386,104.8
18388,177.7
18391,160.0
18392,123.9
18398,132.9
18400,120.4
18404,144.5
18410,126.5
18412,154.0
18414,117.7
18416,170.5
18417,129.1
18424,168.0
18426,148.3
18428,165.1
18430,145.2
18432,149.7
18433,141.4
18435,158.7
18436,110.4
18440,173.5
18442,148.3
18445,131.7
18446,147.7
18449,101.3
18451,132.4
18454,167.8
18455,176.5
18456,146.4
18457,154.9
18458,129.1
18459,141.1
18460,90.9
18464,95.9
18465,152.9
18467,133.5
18471,149.7
18472,133.0
18475,101.5
18480,169.1
18481,126.5
18483,152.5
18484,177.2
18485,134.2
18488,165.0
18492,101.3
18493,113.6
18497,103.8
18499,123.9
18501,93.0
18502,127.1
18505,144.0
18508,94.8
18509,158.4
18510,154.6
18512,136.8
18513,114.2
18515,164.7
18517,177.7
18521,172.1
18524,151.1
18526,131.7
18529,103.3
18531,111.8
18532,175.0
18533,100.2
18534,131.4
18535,163.8
18536,125.6
18538,172.0
18539,136.8
18541,113.3
18544,176.4
18549,119.5
18550,141.4
18551,160.9
18552,134.2
18554,169.1
18555,147.1
18556,137.0
18559,101.3
18561,144.9
18562,110.0
18565,178.1
18566,145.0
18567,134.2
18568,178.7
18570,114.6
18572,162.1
18573,104.7
18575,141.8
18577,147.4
18580,142.0
18587,165.1
18591,176.7
18593,136.8
18594,148.3
18595,119.1
18596,127.6
18598,127.4
18599,152.4
18602,160.9
18606,161.8
18607,149.7
18608,97.4
18609,121.8
18610,167.7
18615,91.8
18619,105.2
18620,142.0
18623,128.8
18632,172.1
18634,123.9
18635,156.8
18636,131.8
18638,160.1
18641,126.2
18647,91.0
18648,152.2
18651,154.8
18654,102.9
18655,140.6
18656,141.7
18658,153.3
18660,147.3
18661,144.5
18662,128.9
18667,165.8
18670,126.6
18671,167.8
18673,148.0
18674,131.7
18676,117.1
18677,130.6
18678,134.0
18679,165.8
18680,153.5
18681,118.6
18683,149.3
18684,94.7
18687,172.9
18688,157.4
18689,105.8
18690,112.4
18692,126.0
18693,134.3
18694,102.9
18697,153.5
18698,95.5
18699,129.0
18701,175.5
18702,139.4
18706,163.0
18709,114.1
18710,141.4
18712,146.0
18714,117.5
18715,121.4
18716,110.8
18718,141.7
18720,142.9
18721,114.9
18722,166.8
18723,156.5
18728,152.2
18731,150.5
18732,167.9
18733,161.2
18742,142.0
18743,152.0
18745,105.7
18747,132.2
18749,152.5
18751,120.1
18752,107.8
18755,126.5
18757,164.5
18758,164.3
18763,98.9
18767,109.9
18769,149.7
18772,91.8
18773,133.3
18774,115.0
18777,112.4
18778,170.8
18781,151.1
18783,134.2
18784,94.5
18785,178.7
18788,128.1
18789,99.1
18790,106.1
18791,116.4
18792,132.8
18796,126.5
18797,112.8
18798,147.0
18800,138.5
18801,107.2
18803,163.7
18806,104.2
18809,152.2
18810,111.8
18811,121.2
18812,119.2
18813,96.5
18814,94.3
18816,112.4
18817,101.9
18822,98.6
18823,134.2
18827,92.6
18829,153.8
18834,122.9
18835,122.1
18836,138.1
18837,126.5
18839,134.9
18840,162.4
18846,176.0
18847,114.0
18849,179.8
18850,142.0
18854,94.7
18855,103.7
18857,170.6
18861,163.6
18863,150.8
18864,129.1
18865,175.2
18867,125.4
18868,96.4
18871,143.4
18872,104.1
18875,163.2
18877,129.1
18879,167.0
18880,101.8
18881,110.9
18884,162.1
18888,93.2
18889,133.8
18890,147.1
18891,136.5
18892,142.8
18893,166.0
18894,164.0
18898,155.9
18900,169.7
18902,171.3
18904,121.4
18905,139.4
18906,156.9
18907,155.6
18909,117.9
18911,176.5
18915,173.8
18917,177.7
18918,131.7
18919,145.5
18920,168.7
18924,99.9
18925,152.3
18931,131.7
18934,167.2
18937,118.3
18941,134.7
18943,100.9
18945,142.0
18948,173.9
18949,128.9
18950,110.8
18951,176.3
18953,146.9
18956,101.8
18957,115.0
18958,147.1
18960,112.1
18961,165.6
18963,128.8
18964,157.0
18966,102.1
18967,166.7
18968,150.4
18969,168.5
18971,149.1
18972,136.8
18975,170.3
18976,154.5
18980,111.4
18981,101.8
18982,168.7
18984,90.1
18985,149.7
18986,129.2
18989,96.6
18990,93.7
18992,103.8
18993,118.3
18996,140.6
18999,154.8
19000,124.7
19001,162.8
19002,150.1
19003,127.8
19004,130.1
19008,169.0
19009,117.5
19010,151.7
19011,152.3
19012,142.0
19015,128.0
19018,172.2
19020,135.5
19023,157.1
19024,143.4
19025,165.1
19029,99.8
19033,97.1
19034,115.6
19036,157.9
19039,155.9
19040,154.8
19042,166.5
19043,155.9
19045,144.0
19049,133.7
19050,136.2
19053,134.2
19058,135.1
19062,98.8
19066,162.5
19067,143.5
19068,93.4
19069,161.9
19070,170.6
19071,149.1
19072,124.7
19075,111.9
19076,137.1
19079,126.7
19080,147.1
19082,135.7
19083,153.7
19084,156.0
19085,98.0
19087,163.6
19088,121.8
19091,127.8
19092,143.6
19093,129.1
19095,179.4
19098,146.5
19100,149.5
19101,124.4
19103,179.4
19105,158.3
19107,157.4
19109,138.3
19112,104.4
19114,133.1
19119,137.2
19121,139.4
19122,91.1
19124,175.4
19126,154.3
19127,104.1
19129,90.2
19130,147.4
19131,139.9
19134,121.4
19136,150.6
19139,174.9
19141,116.1
19143,103.9
19145,107.4
19146,109.0
19147,149.7
19148,127.8
19152,91.6
19154,136.4
19157,155.4
19161,154.1
19162,134.2
19164,92.6
19167,138.0
19169,94.5
19172,126.0
19173,129.9
19175,129.1
19176,169.6
19178,158.4
19179,142.6
19182,179.0
19183,123.4
19184,147.7
19185,121.2
19187,115.6
19188,149.7
19189,139.4
19193,127.0
19194,170.3
19195,113.4
19197,133.3
19198,140.8
19201,174.9
19202,129.1
19209,124.1
19210,136.4
19212,127.6
19215,123.9
19218,123.5
19219,168.2
19220,120.4
19225,134.2
19229,149.7
19231,99.1
19232,128.2
19236,121.9
19237,94.1
19241,150.2
19243,139.4
19246,161.6
19250,163.9
19252,108.7
19253,117.3
19255,173.4
19256,136.8
19261,98.0
19263,94.4
19265,146.3
19266,129.5
19267,143.0
19268,103.2
19269,139.4
19272,154.8
19277,102.1
19278,137.6
19279,176.5
19281,128.6
19282,136.8
19286,158.3
19292,109.3
19293,159.3
19294,153.3
19297,139.4
19303,133.4
19307,111.8
19310,134.2
19311,150.9
19317,98.9
19318,134.6
19320,140.1
19323,144.5
19324,99.7
19326,160.4
19327,165.6
19328,99.7
19329,115.5
19337,142.0
19338,133.2
19340,103.8
19343,166.7
19344,102.9
19346,149.8
19347,102.5
19350,126.5
19354,123.7
19355,163.6
19357,120.3
19359,92.1
19362,95.2
19364,152.2
19368,120.8
19372,143.1
19374,92.8
19376,179.4
19377,154.8
19378,149.7
19379,149.9
19381,142.8
19384,139.6
19386,108.8
19387,166.2
19389,126.1
19391,131.7
19397,131.2
19399,136.8
19401,133.0
19402,117.9
19403,98.8
19404,160.0
19411,109.3
19413,108.2
19415,161.4
19416,115.4
19417,137.4
19418,144.5
19419,159.5
19421,95.3
19423,92.7
19424,97.2
19427,110.1
19431,104.2
19432,131.7
19433,117.6
19434,174.3
19436,178.7
19438,134.3
19440,177.6
19441,115.0
19443,129.4
19445,167.7
19446,141.1
19447,176.6
19449,127.1
19452,179.1
19455,127.2
19456,124.9
19457,136.1
19459,144.5
19461,134.7
19462,107.5
19464,99.0
19465,144.5
19466,124.0
19469,103.1
19470,104.0
19472,123.9
19474,160.0
19475,146.9
19476,95.0
19482,104.9
19484,112.5
19485,152.2
19487,101.7
19489,170.7
19491,115.8
19494,123.5
19495,156.9
19499,130.6
19500,136.8
19502,166.3
19504,175.8
19505,106.6
19506,97.1
19507,123.2
19510,140.7
19511,93.9
19512,113.6
19513,126.5
19515,173.1
19520,166.6
19521,104.9
19522,167.6
19523,169.4
19524,91.1
19526,152.2
19527,96.3
19528,126.2
19532,93.9
19535,138.8
19536,100.3
19539,129.1
19540,106.2
19541,142.1
19542,133.9
19544,139.8
19545,159.4
19547,133.7
19548,145.3
19550,142.5
19553,118.8
19554,124.3
19556,107.4
19558,97.5
19561,102.6
19563,125.2
19565,119.1
19567,139.4
19569,139.6
19570,163.1
19571,167.2
19572,117.2
19573,104.0
19574,103.0
19575,161.9
19576,113.4
19579,140.0
19580,129.1
19581,112.6
19582,139.0
19583,125.4
19586,155.2
19588,112.0
19594,129.1
19597,131.5
19601,131.6
19604,117.0
19605,93.7
19607,142.0
19609,174.9
19610,165.4
19611,168.4
19616,172.2
19618,92.8
19619,103.7
19620,136.8
19621,151.1
19622,146.8
19624,163.1
19626,172.8
19628,160.9
19629,144.4
19631,112.4
19632,141.6
19635,131.7
19636,90.6
19639,97.7
19641,113.7
19642,173.8
19643,160.9
19644,168.6
19645,141.1
19647,157.0
19648,142.0
19649,164.8
19650,163.3
19652,162.4
19654,145.4
19657,156.0
19658,166.2
19659,124.1
19660,149.2
19661,149.7
19662,143.9
19663,170.0
19667,155.4
19671,126.8
19673,139.7
19674,159.9
19675,147.1
19676,116.1
19678,177.2
19682,109.8
19684,97.1
19688,136.8
19690,98.4
19691,158.0
19694,136.4
19696,100.0
19697,167.2
19699,166.9
19701,147.0
19702,147.1
19704,118.1
19705,175.4
19706,120.8
19707,97.7
19709,153.3
19711,104.1
19712,147.3
19714,130.0
19716,147.1
19718,142.9
19729,134.2
19732,90.2
19733,118.1
19736,93.5
19738,122.5
19739,90.1
19742,160.0
19744,157.0
19745,161.3
19746,162.6
19748,171.2
19750,130.8
19752,116.6
19753,163.6
19756,147.1
19759,131.3
19760,109.1
19761,92.0
19763,99.4
19764,162.8
19765,121.8
19766,171.9
19768,114.5
19770,129.1
19771,132.6
19773,175.2
19776,103.7
19777,119.5
19779,177.9
19781,144.0
19783,157.4
19785,161.2
19787,130.9
19789,114.1
19790,110.0
19791,167.2
19792,174.4
19793,113.9
19794,145.6
19795,142.3
19796,149.7
19797,172.9
19798,137.3
19800,90.3
19804,174.8
19807,112.2
19808,99.6
19810,131.7
19811,110.6
19815,157.3
19817,179.9
19818,116.0
19819,106.7
19820,146.7
19822,176.7
19823,160.0
19824,96.4
19825,165.0
19826,91.5
19828,105.1
19832,158.3
19833,130.6
19834,111.0
19835,95.9
19837,139.4
19838,148.1
19839,94.1
19843,134.0
19845,175.3
19847,111.7
19848,151.7
19849,93.3
19851,121.4
19856,92.4
19857,138.0
19858,126.5
19859,119.9
19863,126.6
19864,154.8
19865,98.5
19867,119.0
19868,125.7
19869,125.0
19870,116.0
19872,95.5
19874,129.7
19876,175.6
19877,144.5
19879,126.0
19881,144.0
19882,168.9
19884,124.1
19886,147.2
19891,126.5
19895,142.5
19896,136.7
19901,114.4
19904,112.7
19905,149.7
19907,96.2
19908,91.1
19910,148.5
19911,126.5
19914,99.6
19915,178.9
19917,172.9
19918,131.7
19920,131.0
19921,132.2
19922,157.8
19923,130.0
19926,175.5
19929,158.9
19932,126.5
19934,110.0
19935,133.2
19936,141.7
19939,117.9
19940,107.8
19941,108.2
19943,179.1
19944,93.3
19945,144.5
19946,137.5
19950,100.0
19954,169.6
19955,129.8
19956,141.6
19958,139.4
19963,158.3
19965,164.9
19967,179.3
19973,131.7
19974,115.0
19977,92.1
19982,173.0
19983,114.1
19986,139.4
19990,116.4
19992,175.0
19995,162.9
19996,120.1
19999,136.8
20000,143.3
20003,130.3
20004,110.5
20007,111.0
20009,149.6
20011,117.3
20012,140.8
20013,142.0
20018,126.6
20021,153.1
20022,120.8
20023,174.6
20024,110.6
20026,178.7
20027,142.0
20028,133.2
20031,151.2
20037,163.7
20040,147.1
20042,155.4
20046,122.4
20049,171.6
20051,168.9
20052,158.1
20053,118.0
20054,142.0
20057,152.5
20058,142.7
20059,106.2
20060,146.4
20064,178.2
20066,109.3
20067,131.7
20071,124.7
20072,100.1
20075,156.6
20077,133.0
20080,154.8
20081,164.8
20084,111.2
20085,179.5
20086,109.5
20088,141.1
20089,117.3
20091,128.5
20094,147.1
20096,172.2
20097,114.6
20098,134.6
20101,155.0
20102,173.6
20103,107.6
20105,157.2
20106,140.4
20108,136.8
20109,121.4
20110,137.3
20112,167.2
20113,177.3
20115,111.9
20117,146.0
20118,167.9
20121,162.5
20123,149.3
20125,124.9
20126,130.8
20128,98.3
20129,153.1
20130,179.2
20133,176.3
20134,152.2
20137,114.6
20139,108.1
20140,101.2
20141,158.9
20143,172.6
20148,136.8
20149,125.1
20151,174.4
20152,128.7
20153,122.9
20155,140.3
20158,99.1
20160,168.5
20161,164.2
20162,167.7
20163,131.6
20164,101.3
20165,169.3
20167,100.9
20171,102.3
20173,92.2
20174,152.8
20175,152.2
20181,142.9
20183,145.1
20186,174.1
20187,123.4
20189,131.7
20190,113.7
20192,117.2
20193,108.8
20195,143.3
20196,152.5
20199,130.3
20202,160.0
20204,99.1
20206,116.6
20207,177.9
20209,148.1
20210,122.5
20211,90.4
20213,168.7
20214,143.9
20215,147.1
20218,111.4
20220,149.5
20223,132.8
20225,165.6
20226,98.9
20227,138.7
20228,125.6
20229,175.8
20230,134.2
20232,142.5
20234,103.6
20235,119.0
20236,144.4
20237,166.7
20243,160.0
20244,94.9
20245,92.1
20246,173.2
20248,125.0
20249,94.8
20251,94.3
20252,97.2
20253,176.3
20254,163.7
20255,150.1
20256,136.8
20260,157.5
20261,97.5
20262,119.4
20265,96.6
20267,96.3
20268,142.7
20270,126.5
20273,107.3
20275,113.2
20277,112.7
20279,159.4
20282,146.1
20283,149.7
20284,136.3
20285,102.5
20286,97.9
20291,110.8
20297,134.2
20302,94.2
20303,156.6
20304,136.1
20306,149.0
20309,107.4
20310,166.8
20311,126.5
20312,149.9
20315,123.8
20316,141.6
20321,94.6
20324,144.5
20328,151.2
20329,175.5
20335,172.2
20337,131.7
20341,163.8
20345,166.7
20346,133.0
20350,131.7
20353,107.7
20354,173.9
20355,96.6
20356,113.7
20358,113.6
20361,101.2
20363,150.9
20364,175.0
20365,142.0
20366,132.0
20368,146.5
20370,146.5
20371,127.1
20372,171.1
20374,122.7
20375,118.5
20378,144.5
20379,127.7
20380,144.5
20381,101.4
20382,96.5
20383,179.2
20384,139.2
20386,169.1
20388,91.9
20391,144.5
20393,109.2
20395,97.3
20397,155.5
20398,125.8
20404,115.9
20405,136.8
20406,133.3
20407,95.7
20409,146.7
20411,177.7
20412,110.1
20413,92.6
20417,107.1
20418,149.7
20419,113.6
20422,100.5
20424,146.5
20431,144.7
20432,152.2
20436,128.1
20437,107.0
20439,172.2
20440,144.9
20443,96.0
20446,142.0
20448,166.3
20449,129.1
20451,91.3
20452,111.9
20453,110.3
20456,142.0
20459,162.5
20460,96.1
20461,141.4
20462,110.5
20464,106.2
20465,120.9
20467,161.0
20470,138.0
20472,149.7
20473,169.7
20478,147.2
20480,126.2
20481,130.9
20482,99.2
20486,126.5
20487,124.2
20489,144.2
20490,131.5
20492,113.4
20493,166.1
20495,141.1
20496,166.1
20500,157.4
20505,104.9
20506,106.8
20507,106.7
20509,145.3
20510,158.5
20511,113.2
20513,149.7
20517,151.5
20518,115.1
20519,176.5
20520,162.1
20522,157.2
20527,129.1
20530,128.6
20532,153.3
20534,138.8
20538,135.7
20540,160.0
20541,168.5
20542,169.5
20544,96.7
20545,160.5
20547,110.0
20548,94.2
20551,113.2
20552,144.4
20553,142.0
20554,136.8
20556,118.8
20557,135.0
20558,97.7
20559,120.1
20561,153.2
20565,143.4
20566,149.4
20568,126.5
20570,152.5
20575,159.4
20578,171.9
20579,152.9
20580,105.0
20581,157.4
20583,133.3
20585,133.1
20586,144.9
20588,105.5
20589,122.1
20592,98.8
20593,103.7
20594,142.0
20595,154.2
20597,114.0
20598,125.1
20601,111.2
20606,105.1
20608,131.7
20609,127.1
20613,169.8
20617,177.0
20618,125.6
20619,92.0
20621,152.2
20625,103.1
20630,119.2
20632,116.7
20635,136.8
20636,138.2
20637,90.6
20639,146.0
20644,121.0
20645,145.7
20646,141.1
20647,134.1
20648,136.8
20651,159.3
20652,154.9
20654,177.3
20658,161.7
20659,107.6
20660,164.8
20661,177.9
20662,154.8
20663,166.7
20664,118.4
20665,121.2
20666,140.8
20670,147.9
20673,103.1
20674,154.8
20675,139.4
20676,114.2
20677,97.7
20680,95.8
20681,150.8
20682,178.9
20687,176.7
20688,129.1
20691,131.0
20692,109.7
20693,137.5
20694,103.4
20695,122.0
20697,176.2
20698,131.7
20700,128.8
20701,99.3
20703,142.0
20705,122.8
20706,140.0
20707,155.7
20708,104.4
20710,108.7
20711,161.7
20716,136.8
20717,138.9
20719,122.5
20722,176.1
20723,92.9
20728,175.3
20729,139.4
20732,152.9
20733,142.0
20735,105.0
20736,112.7
20738,147.4
20743,139.4
20745,102.5
20752,132.0
20754,176.5
20755,165.5
20756,139.4
20762,105.4
20763,100.0
20764,169.9
20765,151.5
20768,137.0
20769,108.2
20770,139.4
20771,105.5
20775,129.7
20777,154.5
20779,178.3
20780,158.6
20784,136.8
20789,116.2
20791,121.4
20793,106.6
20794,132.5
20795,90.6
20797,157.4
20803,145.5
20805,166.0
20806,139.5
20810,152.2
20811,102.4
20814,132.3
20815,164.7
20819,96.2
20820,151.4
20821,104.4
20822,145.2
20824,134.2
20826,128.7
20828,169.9
20829,146.6
20833,119.4
20838,154.8
20839,104.1
20841,155.8
20843,119.5
20844,119.9
20845,151.6
20846,91.8
20848,176.1
20849,169.7
20850,92.9
20851,147.1
20852,100.3
20855,117.3
20856,138.4
20857,113.0
20860,101.6
20862,128.6
20865,139.4
20871,105.6
20872,152.1
20874,91.2
20875,127.7
20877,179.6
20878,165.1
20879,102.1
20881,111.7
20884,93.4
20886,157.1
20887,137.6
20888,90.3
20890,171.4
20891,150.3
20892,149.7
20895,151.5
20898,168.9
20899,147.6
20900,107.8
20901,131.1
20903,162.6
20904,141.7
20905,126.5
20906,178.3
20910,159.1
20916,102.7
20917,176.1
20919,160.0
20924,92.7
20926,144.6
20927,168.4
20931,153.9
20932,147.1
20937,109.9
20938,128.0
20939,171.0
20943,128.4
20945,131.7
20947,124.7
20950,140.2
20951,155.4
20952,117.5
20953,112.4
20954,167.2
20956,112.9
20958,115.1
20959,112.7
20960,157.4
20961,174.9
20962,125.1
20966,129.2
20967,113.8
20968,131.8
20969,92.8
20971,139.2
20973,142.0
20975,116.1
20979,156.1
20983,139.7
20984,99.0
20986,126.5
20988,155.6
20989,98.5
20991,126.6
20992,102.8
20996,175.1
20997,164.7
21000,157.4
21001,105.3
21002,90.3
21004,101.7
21005,98.6
21006,122.3
21008,118.6
21009,91.6
21013,136.8
21014,144.9
21015,162.5
21017,145.4
21020,178.0
21027,126.5
21031,127.4
21035,155.8
21036,159.6
