0,-20.1
1,41.2
2,18.5
4,20.2
5,8.2
6,19.6
7,18.5
9,11.5
10,41.6
11,38.1
12,28.8
14,13.3
17,-9.8
19,26.8
20,8.6
21,17.3
24,12.8
25,3.0
26,28.4
27,27.5
31,38.9
32,11.2
33,18.5
36,17.4
37,27.9
40,30.5
41,28.9
42,5.3
43,15.9
46,21.9
48,16.3
50,10.2
52,26.2
54,37.7
56,5.9
58,15.2
59,23.1
61,34.1
62,18.5
68,20.7
69,27.4
71,33.9
76,42.9
78,7.4
79,21.6
80,8.2
82,28.5
84,23.4
86,26.4
89,41.6
91,26.0
94,27.6
95,16.7
97,30.8
98,-15.0
100,14.7
106,18.4
108,41.6
109,28.5
112,26.7
113,20.4
118,-22.7
121,7.9
122,24.3
123,35.5
129,35.5
130,37.2
131,36.5
133,9.3
137,22.6
141,15.9
147,16.0
148,22.4
149,40.9
151,31.3
156,18.0
158,20.1
160,27.1
161,18.5
163,35.7
164,9.1
165,19.5
166,34.5
169,25.3
170,15.1
172,26.2
182,15.9
185,17.0
187,35.1
193,21.0
194,11.3
201,29.3
202,35.6
203,13.3
206,38.3
210,17.4
211,11.5
212,36.8
213,42.5
214,13.3
215,11.2
217,10.3
224,8.2
225,22.4
226,20.1
227,16.0
229,27.9
230,7.3
231,36.9
232,11.8
233,15.9
235,25.3
236,14.6
237,24.8
239,34.3
241,5.0
242,38.3
243,8.2
245,26.8
247,12.2
249,30.3
251,6.6
252,15.9
256,23.3
257,30.3
259,25.6
261,14.0
263,27.6
264,8.2
265,23.0
268,36.7
272,33.3
273,15.9
274,9.0
276,18.2
277,42.4
283,10.8
285,14.0
286,10.7
293,10.8
295,41.5
296,35.0
297,39.8
298,6.8
299,13.1
300,30.8
304,3.0
306,32.4
307,33.9
309,20.3
310,27.5
313,10.8
314,38.0
315,27.7
317,29.5
318,5.7
319,41.8
321,18.6
322,16.1
324,3.0
330,26.2
333,10.8
339,34.2
341,12.3
344,5.6
345,21.7
346,25.6
349,37.1
351,42.6
353,13.3
358,21.4
363,8.2
364,26.6
366,24.1
367,23.2
368,32.4
369,5.7
371,9.5
372,13.3
373,22.9
375,20.7
376,29.4
377,6.3
378,9.3
381,33.5
382,8.2
383,21.3
384,38.8
385,9.7
386,13.8
388,39.9
389,16.5
391,41.8
393,15.9
394,10.0
396,27.6
397,6.6
403,10.8
405,23.4
409,30.3
410,41.3
412,26.2
413,10.8
415,40.3
417,36.1
419,19.2
421,16.4
423,5.6
425,6.5
429,10.4
432,34.6
433,10.8
434,9.4
436,39.6
440,28.2
443,5.6
447,21.6
451,23.2
452,10.8
453,17.0
461,21.2
462,11.8
463,5.6
466,40.7
469,11.9
470,28.1
471,17.6
473,13.3
474,13.2
476,29.1
479,30.1
480,21.7
481,6.1
483,8.2
485,24.0
486,23.3
487,19.8
488,25.6
489,31.0
491,17.4
492,15.9
496,27.7
499,27.8
500,17.4
502,8.2
504,8.7
508,36.3
509,13.8
512,15.9
513,13.6
514,5.2
515,36.6
516,41.8
521,15.9
522,8.2
523,32.7
525,13.3
526,11.3
527,36.5
530,39.2
532,15.9
533,7.1
535,33.2
537,20.0
540,30.0
541,41.0
542,10.8
547,40.4
548,7.6
549,32.3
552,10.8
558,22.9
560,40.1
561,29.3
563,3.0
566,29.1
569,22.6
572,10.8
574,11.0
576,34.4
579,25.4
580,25.7
581,14.4
582,5.6
585,18.2
587,17.2
591,30.7
592,13.3
594,26.1
595,11.5
596,27.2
597,16.6
598,30.9
601,18.2
602,32.1
603,5.6
604,16.9
612,13.3
613,20.4
614,42.1
617,17.5
619,19.0
620,8.2
621,7.5
622,8.2
623,17.8
624,7.0
625,37.4
628,6.8
629,16.7
631,13.3
632,8.5
638,22.0
642,8.2
643,16.7
644,22.9
645,34.1
647,29.3
651,15.9
652,18.6
653,10.4
655,21.7
657,25.1
662,10.8
665,33.2
668,32.8
670,9.3
671,35.0
672,10.8
673,22.5
674,18.5
676,16.4
678,35.6
680,26.7
681,12.6
682,16.0
683,5.6
684,39.2
685,12.7
688,17.7
690,23.6
692,10.8
695,25.3
698,13.4
699,9.7
702,5.6
704,13.3
705,8.2
706,34.9
708,31.2
709,14.1
710,29.5
711,13.3
712,39.9
715,42.3
716,21.2
721,5.6
722,6.4
724,23.0
725,25.3
727,11.7
729,39.7
730,7.6
731,35.2
732,13.3
738,23.2
742,5.6
745,23.1
746,5.4
751,13.3
752,36.4
754,21.5
755,17.0
756,7.4
758,11.9
761,8.2
764,21.9
765,16.6
766,17.4
767,30.1
769,40.2
771,15.9
775,32.7
776,23.3
777,35.6
778,24.5
779,8.9
781,8.2
782,26.5
784,9.1
785,21.1
786,23.2
788,16.1
790,38.0
791,15.9
792,23.9
798,32.9
800,21.8
801,13.3
802,19.4
806,11.2
809,35.7
810,27.4
811,7.5
812,10.8
813,16.8
818,13.0
821,20.1
822,5.6
823,27.3
829,26.9
831,13.3
833,38.8
836,28.9
839,21.3
840,41.9
841,5.6
843,18.0
846,28.2
847,26.9
850,13.3
851,35.0
852,31.2
853,9.3
855,25.2
858,26.1
859,23.2
862,8.2
863,26.9
865,25.2
867,13.9
869,40.4
870,31.9
871,15.9
873,11.2
877,31.8
879,25.5
880,20.6
881,8.2
885,24.8
888,39.4
890,15.9
893,11.5
894,16.2
895,15.5
896,40.6
897,34.5
899,16.3
901,10.8
902,33.5
905,39.2
907,30.5
910,32.5
911,8.2
912,27.1
915,21.6
920,10.8
922,26.3
923,38.3
925,36.3
928,38.8
929,17.5
931,10.8
934,32.0
935,18.2
936,24.8
937,40.9
941,33.2
942,5.6
946,37.0
948,7.0
950,10.5
951,10.8
953,21.8
956,27.2
959,32.8
961,3.0
962,28.1
963,39.1
968,37.1
970,13.3
971,36.9
973,36.2
975,16.4
980,5.6
982,25.5
983,29.3
986,39.5
989,22.2
991,15.9
992,8.1
994,5.5
998,17.5
999,27.1
1000,16.4
1001,10.8
1002,41.7
1003,40.2
1004,35.8
1007,35.0
1008,35.2
1009,12.8
1010,23.9
1012,0.5
1017,38.2
1018,24.9
1020,19.9
1022,5.6
1023,24.9
1025,8.2
1026,32.6
1027,29.3
1031,13.0
1032,24.1
1033,-7.2
1035,33.6
1037,37.3
1038,9.3
1039,8.1
1040,14.3
1041,42.5
1042,23.7
1044,41.6
1049,25.5
1051,15.5
1052,39.8
1056,-7.2
1062,26.9
1063,38.7
1066,5.9
1067,35.2
1068,31.3
1073,30.0
1075,37.9
1076,37.1
1078,26.8
1079,18.5
1080,37.1
1081,36.7
1086,21.9
1087,26.9
1090,10.8
1091,19.1
1093,10.6
1094,37.7
1097,40.1
1098,27.2
1100,13.4
1101,-2.1
1103,35.0
1111,8.4
1113,-9.8
1116,36.5
1121,16.9
1122,24.2
1124,33.5
1125,41.6
1128,33.7
1129,22.7
1131,33.5
1134,34.2
1135,30.4
1136,3.0
1139,12.4
1140,30.6
1143,5.8
1144,33.3
1145,9.6
1146,33.9
1149,14.2
1150,27.2
1153,5.4
1154,41.4
1158,21.0
1159,25.2
1161,37.4
1162,42.4
1164,16.7
1166,29.6
1167,17.0
1169,15.9
1173,9.6
1174,32.5
1178,6.6
1180,0.5
1181,7.2
1182,25.2
1184,36.4
1185,35.3
1187,37.5
1189,32.3
1190,6.6
1191,3.0
1192,17.5
1194,38.4
1195,16.4
1197,32.2
1198,12.9
1199,7.6
1200,18.0
1201,31.5
1202,-2.1
1207,34.9
1210,23.9
1212,19.4
1213,-12.4
1215,20.3
1216,39.8
1218,8.0
1219,31.2
1221,24.4
1222,27.8
1223,26.6
1225,39.1
1229,12.9
1230,14.2
1231,28.5
1233,31.8
1234,28.8
1236,18.5
1239,25.7
1241,42.1
1247,42.1
1248,21.0
1250,37.0
1251,21.3
1252,18.9
1253,41.3
1255,22.1
1257,14.4
1259,29.7
1260,8.2
1261,37.7
1266,36.2
1268,14.1
1269,23.5
1270,8.2
1273,12.1
1275,18.2
1277,38.3
1279,8.8
1280,16.0
1281,3.0
1288,19.9
1289,30.8
1290,6.6
1291,0.5
1293,10.1
1297,24.3
1301,-2.1
1302,14.1
1308,23.5
1311,22.4
1312,-9.8
1316,37.5
1318,25.7
1319,21.0
1320,34.1
1323,19.4
1325,41.6
1326,5.2
1327,39.7
1330,16.2
1336,10.8
1341,24.8
1342,19.4
1347,26.2
1357,14.7
1358,10.8
1359,7.6
1360,31.8
1362,20.7
1365,6.3
1367,9.0
1368,43.0
1369,22.5
1370,5.6
1372,41.1
1373,29.1
1375,12.8
1376,25.3
1380,-2.1
1382,36.1
1384,39.9
1386,20.6
1387,15.1
1390,42.1
1391,41.6
1392,-7.2
1393,6.4
1395,30.4
1401,25.8
1403,41.6
1404,10.1
1407,42.2
1413,5.3
1414,10.4
1415,-2.1
1419,20.9
1420,21.0
1423,40.5
1424,24.3
1425,8.9
1426,31.3
1427,29.1
1431,30.7
1432,22.2
1436,25.1
1437,15.9
1439,27.0
1440,27.5
1442,35.2
1443,40.2
1444,26.9
1445,26.9
1447,6.7
1448,10.8
1451,23.8
1452,14.9
1453,33.7
1454,39.9
1459,37.7
1461,-2.1
1462,28.8
1463,31.3
1465,5.1
1468,11.6
1472,-9.8
1474,24.2
1478,34.0
1479,15.6
1481,28.3
1483,41.6
1485,22.3
1486,15.2
1487,17.2
1489,41.5
1493,9.3
1494,31.9
1495,5.6
1496,36.6
1505,36.5
1507,34.1
1509,25.4
1510,38.9
1511,10.2
1513,23.7
1515,22.2
1516,18.5
1517,38.8
1519,5.8
1525,41.8
1528,13.3
1529,35.6
1531,41.5
1532,42.4
1533,35.0
1535,33.8
1537,36.9
1540,3.0
1541,36.2
1544,34.5
1545,34.1
1547,6.3
1548,16.6
1549,12.9
1550,0.5
1551,24.1
1555,24.9
1556,7.5
1560,-4.7
1562,23.7
1563,25.8
1564,21.8
1565,33.4
1570,41.5
1571,-12.4
1577,13.5
1578,13.9
1580,20.4
1581,33.9
1583,22.1
1584,39.1
1585,36.5
1587,8.6
1588,32.3
1591,28.0
1592,28.7
1595,9.3
1596,18.5
1597,41.2
1598,12.3
1604,36.4
1605,38.2
1607,18.5
1610,41.8
1611,12.1
1617,9.9
1618,8.2
1619,10.1
1621,15.1
1628,11.3
1629,5.6
1630,6.5
1631,15.0
1634,29.9
1636,11.5
1637,38.1
1638,39.0
1639,0.5
1641,28.2
1642,32.5
1644,18.5
1649,0.5
1652,22.5
1653,5.3
1654,33.8
1655,7.5
1657,7.2
1660,5.6
1661,31.2
1662,31.2
1663,36.9
1667,15.3
1669,26.5
1670,11.1
1671,-4.7
1672,19.1
1674,34.7
1676,36.9
1680,29.4
1682,39.1
1683,7.3
1684,23.3
1686,28.4
1688,8.8
1689,29.1
1691,10.5
1692,33.5
1693,-7.2
1697,25.7
1698,22.7
1700,27.3
1703,32.9
1704,31.3
1705,23.0
1706,33.3
1707,42.4
1710,37.9
1711,26.8
1712,12.8
1714,11.7
1716,15.9
1721,8.0
1722,23.8
1723,16.3
1724,10.5
1725,16.0
1727,15.1
1728,13.3
1731,38.8
1732,29.5
1733,13.1
1734,20.9
1736,9.1
1738,36.5
1739,-2.1
1741,7.0
1744,12.3
1745,19.5
1747,21.4
1749,31.1
1751,-7.2
1754,13.2
1756,23.0
1760,10.7
1761,20.2
1762,41.6
1763,31.4
1765,11.5
1767,40.5
1773,3.0
1775,10.8
1776,6.3
1780,27.6
1783,33.9
1786,34.6
1792,14.0
1794,38.9
1795,20.7
1796,18.5
1797,10.2
1799,26.7
1801,12.5
1802,41.4
1803,27.2
1807,15.9
1810,5.4
1811,22.7
1812,28.0
1813,6.1
1815,8.6
1817,14.2
1818,3.0
1819,17.7
1820,35.3
1822,41.7
1828,3.0
1830,6.0
1837,22.5
1838,28.4
1839,-2.1
1840,8.4
1843,33.6
1844,6.3
1846,22.2
1847,11.1
1848,9.1
1850,-9.8
1851,25.5
1853,19.5
1856,6.6
1862,39.1
1863,24.4
1864,38.6
1865,29.9
1866,23.8
1867,12.1
1870,5.9
1873,8.2
1874,36.3
1877,17.0
1878,40.0
1880,34.4
1883,33.3
1884,33.9
1886,35.1
1887,43.0
1888,9.2
1889,11.4
1893,35.7
1894,41.6
1895,21.0
1896,23.0
1900,5.2
1903,14.8
1905,14.3
1906,13.3
1908,7.0
1909,42.2
1910,36.4
1912,33.9
1914,16.1
1915,34.9
1916,39.3
1917,3.0
1920,12.0
1928,10.5
1929,3.0
1931,29.6
1936,5.6
1937,18.0
1939,-2.1
1941,13.2
1944,27.3
1948,33.7
1949,10.4
1950,-12.4
1954,32.8
1955,40.6
1959,32.8
1960,27.2
1963,39.1
1965,16.6
1969,36.3
1973,35.3
1974,18.5
1981,23.0
1982,11.9
1983,28.4
1984,12.9
1985,18.5
1987,11.9
1992,29.4
1993,18.4
1997,8.2
2001,8.6
2003,40.1
2004,22.9
2008,5.6
2009,8.0
2010,22.7
2012,36.1
2013,32.4
2015,5.9
2018,0.5
2021,41.9
2024,10.1
2025,41.0
2027,36.4
2028,0.5
2029,18.6
2030,25.5
2031,9.3
2032,6.4
2034,9.0
2035,26.8
2037,9.2
2038,5.6
2040,41.3
2044,25.4
2047,40.0
2048,8.5
2049,-7.2
2051,35.6
2052,25.5
2057,20.4
2060,33.8
2061,41.6
2066,15.9
2068,28.1
2069,25.4
2070,20.7
2072,-9.8
2074,23.2
2075,21.3
2076,38.4
2081,42.3
2083,33.9
2084,30.6
2086,9.8
2088,22.6
2089,43.0
2091,39.5
2092,24.0
2093,15.2
2095,15.9
2096,22.3
2097,5.9
2098,33.5
2099,21.7
2102,30.0
2103,42.1
2105,42.1
2106,10.8
2108,9.2
2109,6.2
2110,16.1
2114,37.2
2115,10.0
2116,21.6
2117,-2.1
2119,6.7
2120,20.3
2122,33.0
2123,34.0
2124,40.5
2125,34.2
2126,40.8
2127,12.7
2129,-9.8
2131,28.1
2134,32.8
2138,9.9
2139,12.5
2140,17.4
2141,41.6
2142,13.8
2143,25.5
2145,24.4
2146,15.3
2147,40.9
2150,6.5
2152,3.0
2153,11.0
2154,13.5
2155,41.7
2157,20.6
2160,15.4
2162,36.5
2163,12.1
2164,32.1
2165,5.4
2170,7.5
2173,18.5
2174,11.3
2175,33.3
2176,23.7
2179,40.7
2183,10.6
2184,5.6
2185,15.9
2191,39.3
2193,5.1
2196,12.9
2197,3.0
2198,13.3
2202,7.3
2204,5.7
2207,3.0
2209,24.7
2212,14.4
2215,16.1
2216,32.1
2217,-4.7
2218,20.3
2219,14.1
2221,9.2
2223,5.2
2225,24.6
2228,26.7
2229,-12.4
2236,34.6
2239,43.0
2241,39.1
2242,9.6
2243,9.5
2246,35.3
2247,5.9
2249,41.3
2251,37.3
2252,18.5
2253,19.6
2255,33.6
2257,28.9
2259,36.2
2260,10.3
2261,23.8
2262,40.5
2263,33.2
2265,21.0
2266,27.1
2269,25.2
2271,34.4
2272,32.6
2276,8.2
2277,33.1
2279,28.5
2280,19.8
2281,25.6
2282,32.9
2284,16.4
2286,5.6
2287,42.6
2290,41.1
2291,40.8
2292,37.9
2293,25.8
2294,23.2
2296,0.5
2297,14.8
2299,14.3
2302,6.9
2303,40.0
2305,36.0
2306,42.0
2307,3.0
2309,24.6
2315,31.0
2317,-2.1
2320,14.5
2321,9.5
2324,8.7
2325,36.7
2326,41.2
2327,8.1
2328,8.7
2329,-12.4
2330,38.5
2332,17.1
2336,30.2
2337,26.1
2338,19.0
2340,14.8
2341,39.1
2342,24.0
2344,33.9
2345,41.6
2348,16.7
2349,42.0
2352,12.2
2353,18.5
2356,14.9
2362,37.2
2364,21.0
2365,5.5
2367,18.8
2368,17.3
2370,14.1
2371,20.7
2372,6.1
2373,17.2
2375,8.2
2379,40.9
2381,28.1
2382,14.5
2383,27.1
2385,5.6
2387,31.8
2394,37.8
2397,0.5
2399,21.4
2400,10.6
2401,7.0
2407,0.5
2408,7.2
2411,10.2
2417,8.2
2418,38.5
2419,32.4
2420,35.8
2423,31.8
2425,25.5
2426,8.5
2427,-4.7
2431,24.3
2432,40.0
2435,29.8
2437,24.5
2438,27.7
2439,39.1
2441,34.1
2448,41.8
2449,10.7
2450,-7.2
2451,38.8
2453,10.3
2454,25.2
2455,24.0
2456,7.7
2457,15.0
2459,17.3
2462,31.3
2465,10.2
2467,13.6
2468,39.7
2469,29.2
2471,12.3
2473,15.9
2474,16.8
2481,41.1
2485,13.3
2490,13.4
2493,42.8
2496,-2.1
2498,5.7
2502,16.2
2504,11.1
2507,-9.8
2511,8.6
2512,34.3
2513,41.1
2515,26.0
2517,17.6
2519,41.6
2520,25.9
2523,31.1
2524,40.7
2525,28.9
2527,34.9
2528,42.0
2531,3.0
2537,18.1
2538,5.7
2541,36.5
2547,30.3
2548,38.9
2551,9.3
2552,18.5
2559,6.2
2560,22.7
2561,11.6
2563,7.1
2564,15.9
2568,21.2
2574,5.9
2575,3.0
2578,8.2
2581,26.3
2582,24.9
2583,22.4
2585,3.0
2586,6.1
2587,32.5
2588,33.3
2591,11.7
2592,42.4
2595,9.8
2596,-4.7
2598,32.9
2600,40.2
2602,21.2
2608,-9.8
2609,18.3
2610,9.8
2612,29.9
2614,15.1
2615,25.2
2619,41.6
2621,19.2
2626,23.9
2630,5.6
2631,21.3
2634,33.6
2635,13.5
2637,36.0
2639,38.9
2640,33.9
2641,39.7
2642,33.6
2644,16.9
2645,32.6
2646,41.9
2649,16.6
2652,18.5
2653,11.8
2654,10.5
2656,21.7
2657,42.5
2659,37.4
2661,16.4
2662,36.4
2664,15.9
2665,6.0
2667,28.6
2670,17.7
2672,5.3
2675,3.0
2679,24.0
2680,33.3
2682,28.8
2683,12.8
2684,32.8
2685,0.5
2688,23.7
2689,10.7
2693,13.9
2695,26.2
2696,0.5
2697,21.0
2701,23.7
2703,20.6
2706,-4.7
2707,11.4
2708,40.7
2709,33.8
2710,33.5
2711,9.8
2712,22.4
2715,41.2
2717,39.1
2720,20.0
2721,42.5
2725,24.4
2726,37.2
2728,31.7
2729,-12.4
2732,19.7
2734,18.3
2735,31.6
2736,20.2
2737,10.8
2738,9.9
2741,42.4
2742,26.2
2744,41.3
2745,28.6
2746,21.8
2747,42.9
2750,37.4
2753,13.3
2754,21.8
2756,37.5
2763,15.2
2764,8.2
2765,28.7
2767,23.0
2768,36.5
2772,30.2
2773,27.0
2774,29.3
2775,0.5
2776,18.7
2777,6.4
2779,42.0
2780,9.1
2784,24.4
2785,-2.1
2786,24.0
2790,23.4
2797,33.9
2798,16.5
2802,10.5
2804,13.9
2805,37.8
2806,35.8
2807,16.7
2808,-20.1
2810,16.7
2812,20.9
2813,33.1
2816,19.4
2819,10.8
2820,9.2
2821,31.3
2822,8.3
2825,35.0
2828,21.4
2829,14.6
2831,33.1
2832,15.9
2834,18.5
2836,18.6
2838,26.8
2839,11.5
2840,41.9
2843,10.8
2844,30.1
2849,15.5
2850,15.8
2852,36.1
2854,34.1
2855,-2.1
2856,8.8
2857,32.0
2858,23.7
2860,12.4
2862,25.9
2864,25.2
2867,-9.8
2868,22.6
2869,5.1
2875,30.4
2878,41.6
2879,13.9
2880,13.6
2884,30.7
2885,35.0
2886,24.0
2887,37.8
2888,35.6
2889,8.2
2890,32.5
2891,25.1
2893,15.5
2894,35.5
2898,25.4
2899,33.9
2902,42.7
2903,20.4
2906,37.9
2911,18.5
2912,5.7
2914,37.2
2916,36.0
2917,42.7
2921,11.9
2923,13.3
2925,11.1
2927,38.4
2928,16.8
2929,29.9
2930,15.6
2934,0.5
2935,35.5
2937,12.1
2938,37.8
2939,9.5
2941,20.3
2943,16.8
2944,33.3
2945,3.0
2948,25.1
2950,5.2
2953,40.9
2954,23.9
2955,-2.1
2960,8.8
2961,32.7
2965,38.1
2966,-9.8
2968,19.6
2971,42.5
2972,12.7
2973,7.4
2974,31.6
2975,9.0
2976,22.0
2977,39.1
2979,36.5
2980,28.7
2982,39.7
2983,6.9
2990,10.8
3001,26.2
3011,8.4
3012,13.3
3013,15.5
3015,40.7
3016,13.0
3017,39.9
3020,23.0
3022,9.4
3023,5.6
3025,9.1
3026,31.2
3027,33.4
3029,27.4
3030,22.7
3031,29.8
3032,20.8
3033,34.7
3034,0.5
3035,9.0
3037,29.0
3038,19.7
3039,40.2
3040,33.9
3041,40.7
3043,31.0
3044,0.5
3046,28.4
3049,33.5
3052,6.9
3054,24.3
3055,5.6
3056,8.7
3058,29.6
3060,37.1
3061,29.2
3062,36.2
3063,17.5
3064,18.9
3065,-7.2
3067,5.4
3070,9.6
3071,12.8
3074,21.6
3077,39.1
3078,13.5
3079,25.1
3081,31.8
3086,5.9
3088,-7.2
3090,40.1
3092,26.2
3096,30.7
3099,33.9
3100,36.8
3103,24.9
3104,5.1
3107,10.2
3110,18.5
3112,22.8
3114,33.9
3119,32.2
3121,22.8
3122,40.9
3123,10.8
3124,9.0
3130,6.0
3133,31.2
3134,-2.1
3136,9.2
3138,28.4
3139,42.1
3143,10.9
3144,39.0
3145,-9.8
3146,30.7
3147,38.4
3148,27.3
3152,42.5
3153,14.5
3156,41.6
3158,23.6
3160,9.6
3161,12.5
3163,17.9
3165,13.6
3166,22.0
3167,20.9
3168,3.0
3169,37.8
3170,39.2
3171,5.3
3172,35.3
3173,25.8
3174,30.6
3175,32.2
3176,18.9
3178,39.1
3179,18.4
3180,38.0
3181,24.0
3186,5.6
3187,29.8
3188,30.4
3190,18.5
3191,16.1
3192,35.3
3194,10.1
3196,38.3
3197,41.6
3199,11.2
3201,36.3
3202,15.9
3203,19.8
3207,6.4
3209,42.7
3212,27.9
3213,3.0
3215,34.0
3219,26.0
3220,37.2
3221,14.9
3222,30.3
3223,3.0
3224,5.8
3229,35.4
3230,30.9
3231,18.5
3233,-2.1
3235,21.6
3237,31.2
3238,14.3
3240,37.3
3241,39.7
3244,18.9
3245,-12.4
3246,33.4
3248,38.3
3249,10.4
3250,17.2
3252,33.0
3256,36.9
3258,41.6
3259,39.0
3264,36.3
3265,19.8
3269,18.5
3270,5.2
3272,40.3
3274,13.3
3275,18.8
3276,42.2
3278,41.3
3279,29.7
3280,21.0
3282,34.1
3284,38.9
3286,10.9
3287,37.2
3288,31.7
3289,31.4
3290,28.6
3291,37.9
3292,8.2
3293,27.0
3294,16.0
3299,37.5
3300,24.1
3301,13.4
3302,8.2
3303,5.4
3305,39.7
3306,33.1
3309,27.8
3310,35.8
3311,35.9
3312,3.0
3314,17.0
3315,13.7
3316,10.6
3317,19.0
3318,7.7
3321,23.1
3323,3.0
3324,18.9
3325,35.7
3327,25.9
3328,19.7
3329,16.1
3334,0.5
3335,32.1
3338,14.3
3339,30.4
3341,40.6
3343,37.8
3344,-7.2
3345,13.8
3355,39.1
3356,25.9
3361,8.6
3365,17.4
3366,-12.4
3370,36.2
3377,38.5
3379,26.2
3385,15.5
3386,23.9
3388,14.9
3391,13.3
3393,42.8
3398,23.6
3399,36.2
3400,27.2
3402,5.6
3405,21.1
3406,41.4
3408,17.2
3409,14.4
3411,17.8
3412,0.5
3415,33.3
3416,39.7
3418,9.2
3422,25.7
3423,0.5
3425,7.9
3428,22.1
3432,23.7
3433,8.2
3437,35.7
3440,10.1
3441,27.5
3443,-7.2
3447,34.1
3451,23.9
3452,8.7
3453,18.8
3454,10.9
3455,37.5
3456,41.6
3457,29.3
3458,34.0
3459,35.9
3461,22.6
3467,-7.2
3468,13.6
3470,19.6
3471,10.8
3472,34.9
3473,21.5
3474,33.0
3475,42.6
3476,34.3
3478,31.3
3480,21.1
3484,22.6
3486,10.4
3489,15.9
3491,18.6
3493,21.8
3494,6.0
3497,12.7
3498,36.4
3501,10.8
3503,22.6
3504,18.7
3510,35.6
3512,-2.1
3513,33.7
3515,23.3
3516,42.8
3520,33.6
3521,23.3
3522,32.5
3524,-9.8
3525,13.2
3533,23.5
3534,16.7
3535,41.6
3539,13.7
3540,5.6
3542,12.1
3545,21.8
3547,5.6
3548,36.2
3549,36.9
3551,24.1
3553,17.3
3555,22.4
3556,11.9
3557,36.5
3559,6.9
3561,26.4
3566,17.6
3567,34.3
3568,18.5
3570,20.0
3572,25.1
3579,15.9
3581,42.3
3583,39.0
3586,12.1
3587,24.6
3590,16.4
3591,6.7
3592,3.0
3593,20.8
3600,14.5
3601,5.4
3602,3.0
3607,29.8
3608,19.3
3609,12.9
3610,23.2
3612,-2.1
3615,7.6
3617,36.7
3619,12.8
3622,17.9
3623,-9.8
3624,32.6
3626,41.7
3628,20.2
3633,20.9
3635,41.6
3638,10.3
3639,27.9
3642,13.3
3646,10.8
3648,25.1
3650,32.4
3654,36.8
3656,28.1
3657,20.4
3658,28.8
3659,30.5
3660,6.1
3661,15.0
3663,39.9
3668,24.9
3669,19.9
3670,15.9
3672,30.8
3673,11.7
3674,31.4
3675,34.6
3678,34.5
3680,14.9
3681,8.2
3683,18.2
3684,6.0
3686,24.9
3688,36.7
3690,34.3
3691,0.5
3695,23.0
3700,27.0
3701,0.5
3704,33.2
3710,41.4
3711,17.4
3712,0.5
3715,37.4
3717,21.3
3720,14.8
3721,5.3
3723,-7.2
3724,12.3
3727,29.9
3728,17.2
3730,22.1
3731,33.0
3733,24.0
3734,41.6
3737,38.5
3743,24.0
3745,-12.4
3746,17.9
3748,14.7
3751,21.6
3752,7.9
3758,23.6
3761,31.8
3762,6.0
3764,36.6
3765,25.0
3767,10.6
3768,11.9
3769,15.9
3770,13.0
3771,20.3
3772,36.8
3774,22.3
3775,12.8
3776,7.3
3779,11.7
3780,5.6
3781,40.9
3787,10.6
3788,8.9
3790,33.9
3791,0.5
3792,36.8
3793,36.5
3794,29.7
3795,23.6
3796,28.1
3797,41.8
3799,9.1
3801,11.2
3802,-2.1
3805,34.6
3809,11.0
3813,31.3
3816,38.6
3817,19.1
3821,16.0
3822,36.8
3823,20.4
3824,-22.7
3825,26.0
3826,6.2
3829,11.7
3831,8.9
3834,21.1
3835,27.0
3836,28.8
3838,12.9
3839,37.5
3840,11.8
3842,6.1
3843,11.8
3844,20.7
3847,41.5
3848,18.5
3849,26.6
3851,25.9
3852,8.6
3856,42.2
3857,15.1
3860,8.2
3862,30.8
3867,15.2
3868,36.5
3869,7.3
3870,5.6
3872,25.8
3873,38.0
3877,22.1
3880,3.0
3882,38.6
3884,33.9
3887,40.0
3890,35.6
3891,0.5
3892,8.1
3893,40.1
3897,21.9
3898,34.6
3901,-2.1
3904,38.8
3905,31.0
3907,40.8
3910,16.1
3911,12.5
3912,36.5
3915,12.0
3916,36.7
3918,12.0
3919,39.8
3920,19.3
3924,-22.7
3925,13.5
3926,9.3
3929,35.7
3930,11.1
3932,15.6
3933,21.9
3936,42.2
3937,28.8
3939,39.8
3941,5.2
3942,13.4
3943,26.4
3944,33.2
3946,33.7
3948,15.9
3949,17.4
3951,7.3
3953,38.5
3954,28.4
3955,28.3
3959,8.2
3961,42.5
3962,17.4
3964,31.6
3966,13.3
3967,28.0
3970,3.0
3971,9.8
3972,31.6
3974,42.7
3979,23.7
3980,3.0
3982,25.6
3986,8.3
3988,39.0
3991,-2.1
3992,9.5
3999,19.7
4000,18.2
4001,6.8
4002,-9.8
4003,42.0
4005,26.4
4007,21.3
4009,9.8
4014,41.6
4016,21.4
4023,21.0
4024,20.0
4025,8.2
4030,17.6
4034,11.5
4035,36.5
4036,37.8
4039,26.0
4040,16.5
4042,42.1
4043,27.3
4044,15.1
4046,18.5
4047,33.5
4048,27.3
4049,5.9
4051,32.5
4052,24.2
4053,25.8
4057,16.5
4059,13.3
4061,5.1
4062,33.4
4064,42.8
4065,33.6
4070,0.5
4073,37.2
4077,5.8
4079,6.7
4080,0.5
4081,5.4
4082,32.2
4085,8.9
4086,41.5
4090,3.0
4093,37.1
4096,27.6
4099,11.3
4100,34.3
4101,-7.2
4105,39.4
4110,34.5
4112,41.6
4113,40.9
4114,38.5
4115,14.1
4123,6.2
4124,-9.8
4126,14.8
4130,26.8
4133,6.3
4135,33.9
4138,13.6
4139,39.2
4140,18.2
4141,12.3
4144,12.8
4147,18.5
4148,5.2
4150,11.4
4151,18.6
4154,6.5
4157,35.8
4158,10.8
4159,39.4
4161,35.6
4163,18.1
4166,42.0
4167,9.3
4169,-2.1
4172,38.6
4174,13.6
4179,17.8
4180,-7.2
4186,17.5
4188,32.3
4189,39.1
4193,41.6
4194,13.6
4204,0.5
4206,20.4
4207,24.2
4214,36.5
4215,26.1
4217,26.3
4220,31.4
4221,12.9
4223,12.4
4226,18.5
4228,34.5
4229,12.3
4230,11.2
4235,37.3
4237,18.5
4238,20.0
4239,11.2
4240,21.2
4246,5.3
4247,25.4
4248,5.6
4252,18.2
4256,33.4
4258,25.5
4259,3.0
4260,29.5
4261,9.7
4264,36.6
4265,35.0
4267,33.6
4270,-2.1
4276,8.4
4277,38.4
4281,-7.2
4282,7.2
4284,34.6
4285,33.6
4286,19.9
4288,39.5
4289,28.2
4291,28.4
4292,44.2
4293,41.2
4294,9.5
4302,14.2
4303,3.0
4306,23.9
4307,12.5
4308,23.3
4309,16.7
4311,19.1
4312,11.1
4313,39.4
4314,36.5
4317,19.6
4320,27.6
4321,37.9
4322,29.4
4326,18.5
4329,26.5
4330,39.3
4331,18.0
4332,42.5
4333,8.7
4334,10.0
4335,20.0
4336,7.9
4337,13.3
4338,13.7
4340,23.3
4341,13.8
4342,20.2
4345,40.9
4346,37.5
4347,15.4
4348,3.0
4350,17.1
4354,30.4
4355,24.3
4356,39.9
4357,14.6
4359,3.0
4360,8.9
4366,39.4
4369,-4.7
4370,31.6
4371,38.8
4372,21.2
4373,22.0
4375,34.1
4377,6.0
4378,26.7
4380,-12.4
4382,11.0
4383,33.2
4385,25.3
4387,15.2
4388,38.2
4393,39.1
4394,15.3
4395,12.3
4396,31.8
4397,7.4
4399,31.3
4400,37.7
4402,18.5
4403,17.1
4405,18.5
4406,15.3
4408,32.4
4409,10.3
4410,27.1
4413,9.0
4415,14.0
4416,21.0
4417,37.0
4422,24.7
4427,8.2
4429,21.8
4434,39.9
4438,5.6
4439,22.5
4440,10.3
4443,22.7
4444,42.0
4446,19.2
4447,33.2
4448,0.5
4454,37.7
4455,10.8
4457,8.6
4459,-2.1
4461,25.7
4464,31.9
4470,31.3
4472,14.7
4473,35.3
4476,17.2
4481,40.4
4482,-20.1
4484,35.1
4490,27.4
4492,33.0
4494,33.9
4495,41.8
4499,16.5
4500,25.6
4501,23.7
4504,21.4
4505,18.5
4506,29.1
4509,36.5
4510,12.5
4511,12.9
4516,10.8
4522,13.9
4524,11.5
4528,27.4
4529,-2.1
4536,26.2
4537,18.5
4538,18.6
4539,28.5
4540,-9.8
4541,7.2
4542,17.9
4543,32.2
4547,30.3
4548,41.5
4549,15.4
4550,38.6
4551,41.6
4553,17.7
4554,24.1
4555,34.8
4556,32.9
4560,25.2
4561,36.5
4562,3.0
4566,25.6
4568,42.0
4569,17.2
4570,21.6
4572,35.2
4573,33.9
4574,10.1
4576,35.0
4577,5.7
4578,24.3
4579,20.1
4582,9.8
4584,27.2
4585,21.0
4587,11.4
4588,16.6
4589,13.2
4590,34.6
4591,38.2
4593,33.0
4594,8.0
4595,27.3
4596,15.9
4598,11.4
4600,11.0
4601,12.0
4604,18.3
4605,33.7
4607,25.3
4608,0.5
4609,18.4
4610,35.2
4613,40.5
4615,20.4
4616,33.8
4618,0.5
4619,42.6
4620,22.0
4622,26.0
4623,12.2
4626,33.9
4627,38.5
4628,-2.1
4629,29.6
4631,8.4
4636,40.9
4637,35.1
4639,-12.4
4642,14.3
4644,15.4
4651,15.9
4653,39.1
4655,26.8
4656,27.6
4659,34.9
4662,28.0
4663,29.9
4664,18.5
4668,20.0
4669,36.6
4671,21.8
4672,10.1
4673,20.1
4674,15.0
4675,21.0
4676,36.6
4678,18.0
4679,36.9
4680,41.6
4683,18.7
4685,12.4
4686,8.2
4688,7.5
4689,36.8
4691,29.6
4692,5.7
4693,13.8
4694,7.8
4696,33.0
4697,5.6
4698,8.2
4699,13.3
4701,19.1
4705,12.6
4706,28.5
4707,0.5
4709,10.1
4710,16.3
4717,22.6
4718,0.5
4719,8.3
4720,27.5
4721,19.5
4722,5.2
4723,6.8
4724,41.7
4726,40.4
4728,5.6
4730,10.5
4731,23.5
4733,6.4
4734,20.2
4735,20.2
4737,40.1
4739,-4.7
4741,33.4
4742,36.6
4746,7.1
4750,41.6
4751,42.1
4752,38.1
4753,19.9
4754,13.3
4757,25.0
4758,40.7
4760,5.4
4761,-9.8
4763,26.8
4764,13.7
4766,11.6
4768,15.3
4770,8.4
4771,36.4
4772,33.9
4774,30.0
4776,37.6
4777,30.6
4779,12.8
4782,38.0
4783,12.5
4784,20.6
4785,18.5
4786,5.5
4787,40.6
4792,28.5
4793,15.8
4795,8.5
4796,13.3
4799,21.5
4805,10.2
4807,0.5
4809,12.6
4812,8.8
4817,0.5
4818,18.3
4821,39.2
4822,15.9
4823,39.8
4824,12.5
4825,11.8
4826,22.9
4827,39.0
4828,10.8
4829,24.9
4834,23.1
4835,21.0
4836,39.9
4838,6.2
4839,-12.4
4841,37.6
4842,12.9
4843,14.5
4845,16.1
4846,28.7
4849,6.7
4850,15.5
4851,21.3
4852,36.5
4853,7.6
4854,17.5
4855,17.9
4857,24.4
4858,21.8
4860,42.9
4861,36.8
4863,23.8
4864,21.0
4865,28.4
4866,12.2
4867,16.4
4868,11.9
4870,38.5
4875,15.9
4878,15.9
4879,13.3
4880,16.7
4881,34.3
4882,8.0
4886,3.0
4887,23.9
4889,13.3
4890,18.1
4892,34.7
4895,35.3
4896,3.0
4898,24.0
4900,19.8
4901,14.7
4903,26.7
4905,42.9
4907,-2.1
4909,11.3
4910,38.2
4911,34.4
4913,19.0
4916,13.6
4919,-9.8
4924,37.0
4925,10.2
4926,26.3
4928,6.6
4929,31.2
4930,41.6
4934,11.6
4937,24.6
4938,32.9
4941,5.6
4942,15.1
4943,29.8
4944,42.2
4946,5.1
4950,17.9
4952,36.5
4953,24.0
4956,17.8
4957,38.7
4959,23.3
4961,40.9
4963,18.5
4965,11.6
4967,19.9
4968,15.6
4970,17.2
4973,27.4
4974,15.9
4976,5.6
4977,35.3
4980,27.1
4982,13.4
4986,3.0
4987,25.3
4989,15.0
4992,21.2
4994,16.6
4996,37.2
4997,0.5
5000,29.1
5002,33.0
5003,16.2
5004,22.3
5007,-4.7
5013,41.3
5014,24.9
5015,15.5
5017,22.4
5018,-12.4
5021,20.1
5025,19.3
5026,25.6
5027,22.2
5028,29.8
5030,39.1
5042,18.5
5043,37.5
5044,38.4
5046,14.7
5048,20.7
5052,22.8
5054,21.0
5055,30.8
5056,19.7
5064,13.9
5065,8.2
5067,26.0
5075,5.6
5077,35.7
5083,41.7
5084,7.6
5085,30.0
5086,0.5
5087,38.5
5088,8.3
5089,19.2
5090,24.7
5094,28.1
5095,6.3
5096,0.5
5098,7.3
5101,22.2
5106,3.0
5108,40.1
5109,11.3
5110,37.0
5112,5.4
5116,24.6
5117,-7.2
5119,17.7
5120,31.5
5121,29.7
5123,36.8
5124,19.6
5128,16.0
5129,39.1
5130,14.0
5132,20.7
5133,38.5
5138,6.3
5140,-7.2
5142,39.2
5145,13.7
5146,14.4
5150,15.1
5151,31.3
5154,21.1
5157,24.3
5158,13.0
5160,20.1
5163,18.5
5174,13.3
5176,29.5
5177,30.3
5178,5.8
5182,20.4
5186,0.5
5189,31.6
5196,-2.1
5197,38.7
5199,9.6
5202,40.5
5203,12.0
5204,12.0
5206,20.6
5208,33.9
5210,37.6
5213,39.6
5215,29.4
5216,34.5
5219,-20.1
5227,28.3
5228,34.3
5230,22.2
5231,28.8
5236,29.6
5239,21.4
5240,13.3
5242,15.9
5243,33.9
5244,30.7
5245,35.7
5247,6.8
5248,22.9
5250,12.8
5254,20.8
5255,8.2
5257,16.6
5259,35.9
5260,31.5
5261,31.4
5263,38.0
5264,24.1
5265,3.0
5267,23.3
5270,20.2
5271,33.2
5272,17.0
5274,42.8
5275,3.0
5276,17.3
5277,5.8
5279,30.5
5283,16.5
5284,10.2
5285,-2.1
5287,36.5
5289,31.4
5291,7.2
5292,29.6
5297,-9.8
5303,26.3
5304,34.1
5305,34.1
5308,39.1
5309,25.7
5310,20.3
5311,32.5
5314,6.1
5320,8.2
5324,19.8
5325,12.1
5326,7.3
5327,7.6
5328,34.0
5330,33.9
5331,27.0
5333,41.6
5335,39.1
5337,5.6
5339,12.3
5342,18.5
5343,35.8
5344,27.1
5345,34.1
5349,24.3
5350,28.4
5351,30.6
5353,15.9
5357,26.5
5358,25.4
5359,11.1
5362,9.6
5364,0.5
5369,10.8
5370,31.7
5371,41.7
5373,34.2
5374,0.5
5375,34.4
5376,13.9
5377,8.4
5378,33.0
5379,40.0
5382,25.3
5383,36.2
5386,0.5
5390,16.7
5391,15.0
5394,20.4
5396,-4.7
5398,16.1
5401,6.1
5404,32.3
5405,27.5
5407,39.1
5408,31.1
5409,30.3
5413,42.0
5416,8.3
5417,34.3
5419,-15.0
5420,41.4
5421,16.5
5422,42.6
5425,27.9
5426,5.7
5427,15.7
5429,34.5
5431,28.8
5435,28.2
5438,20.9
5440,6.0
5441,19.5
5442,13.3
5443,11.8
5445,28.4
5446,36.1
5447,21.7
5449,5.1
5454,5.6
5455,14.8
5457,28.1
5463,11.2
5465,0.5
5469,43.0
5470,13.8
5473,39.7
5475,0.5
5476,33.2
5481,15.6
5483,34.9
5484,35.8
5485,5.6
5489,31.5
5490,34.7
5491,31.4
5495,-4.7
5497,36.2
5499,7.9
5502,32.5
5505,9.2
5507,41.6
5508,22.9
5509,37.7
5510,5.2
5512,29.1
5515,41.2
5516,15.3
5517,13.4
5519,-4.7
5521,9.3
5523,38.6
5524,25.1
5525,37.8
5526,33.8
5527,40.0
5530,33.9
5533,8.9
5536,29.7
5537,14.6
5539,34.4
5540,40.0
5541,18.5
5542,30.0
5543,39.2
5547,29.9
5548,8.5
5549,5.1
5551,40.7
5552,34.4
5553,10.8
5556,9.3
5557,7.1
5559,27.8
5560,10.9
5563,29.0
5564,-2.1
5565,6.6
5566,38.4
5567,12.7
5568,24.5
5571,25.5
5573,24.7
5575,-9.8
5576,39.1
5580,41.5
5582,7.5
5583,11.1
5586,10.7
5587,41.6
5589,11.3
5593,40.9
5595,25.9
5597,29.7
5598,34.3
5599,3.0
5600,36.7
5603,37.0
5609,36.5
5610,17.4
5614,41.0
5615,30.1
5617,5.7
5619,10.6
5620,21.0
5622,24.3
5623,27.0
5625,17.9
5628,26.5
5631,29.4
5632,15.9
5633,22.7
5634,15.5
5638,7.9
5639,25.5
5640,21.1
5641,27.5
5643,3.0
5644,9.3
5645,27.8
5647,39.0
5648,37.6
5649,11.5
5650,22.9
5654,3.0
5659,19.9
5662,5.6
5663,6.3
5664,-2.1
5665,10.1
5666,5.6
5668,28.7
5670,22.3
5672,29.2
5675,35.6
5676,-9.8
5677,42.8
5680,21.0
5681,30.6
5684,38.5
5687,41.6
5688,15.7
5689,13.3
5690,35.5
5691,19.5
5693,29.7
5694,29.4
5695,17.7
5698,8.2
5700,24.8
5701,36.2
5702,23.4
5703,5.2
5704,11.8
5706,33.0
5707,16.2
5708,36.5
5710,30.2
5713,30.0
5715,16.3
5716,30.0
5718,19.2
5719,20.5
5720,5.7
5721,18.5
5722,8.4
5724,40.2
5725,41.4
5732,13.3
5733,22.4
5734,14.4
5735,11.9
5737,39.6
5738,26.7
5739,20.4
5743,0.5
5745,36.0
5746,31.8
5749,14.5
5752,19.3
5753,0.5
5754,33.9
5755,5.0
5756,39.9
5758,16.2
5760,19.3
5762,10.1
5763,34.1
5764,0.5
5773,31.2
5774,-4.7
5775,6.6
5776,18.5
5778,31.5
5780,21.1
5781,24.0
5782,8.0
5784,25.2
5785,21.7
5786,41.6
5789,19.0
5790,40.8
5793,30.8
5794,41.9
5795,38.2
5797,-12.4
5800,36.4
5802,15.3
5804,38.3
5808,24.4
5809,10.6
5810,26.2
5814,18.4
5816,32.2
5818,22.2
5819,23.9
5821,10.8
5822,24.7
5824,15.5
5827,32.1
5828,20.6
5829,43.0
5831,41.5
5832,5.6
5834,13.8
5836,6.5
5839,20.3
5842,0.5
5844,22.6
5846,34.5
5848,41.9
5852,20.5
5853,27.2
5854,0.5
5857,9.9
5858,27.1
5860,26.5
5862,23.4
5864,8.2
5865,39.6
5866,38.7
5868,39.4
5869,10.1
5871,6.9
5874,-4.7
5876,14.7
5879,28.0
5880,19.7
5885,41.6
5886,11.3
5887,20.6
5889,28.6
5890,5.4
5891,20.8
5893,7.8
5897,-4.7
5899,22.2
5900,40.4
5903,27.2
5904,11.7
5905,38.9
5906,19.3
5907,42.4
5908,33.9
5912,39.5
5914,41.0
5916,30.0
5917,10.9
5919,39.8
5920,18.5
5921,27.9
5922,41.2
5924,25.8
5928,13.2
5932,10.8
5933,33.6
5935,32.9
5936,37.9
5938,20.2
5939,24.6
5943,-4.7
5944,32.0
5946,22.1
5949,12.1
5951,39.8
5954,-9.8
5956,21.5
5958,16.4
5960,14.4
5965,41.6
5966,25.0
5967,6.9
5968,41.0
5969,35.7
5970,39.0
5971,35.9
5977,5.6
5979,8.6
5980,12.6
5984,25.1
5988,36.5
5991,12.2
5992,34.0
5998,8.2
5999,18.5
6000,42.7
6001,20.3
6004,6.1
6009,39.1
6010,15.9
6011,16.0
6012,6.9
6013,42.2
6014,31.5
6015,40.3
6017,10.6
6020,28.4
6022,3.0
6025,33.4
6028,7.6
6029,35.1
6030,33.2
6032,3.0
6034,30.1
6036,37.4
6037,38.1
6039,32.8
6042,-4.7
6043,26.4
6046,13.3
6047,9.5
6050,12.8
6052,35.8
6054,-9.8
6056,23.8
6057,10.8
6059,29.2
6060,25.7
6061,10.0
6062,27.5
6063,25.5
6065,29.5
6066,39.1
6067,36.6
6068,19.6
6069,11.1
6070,34.9
6074,40.7
6077,10.8
6083,10.1
6085,39.5
6087,17.5
6088,28.8
6089,41.8
6091,29.7
6094,7.1
6096,11.9
6097,17.8
6098,13.8
6099,13.3
6101,26.7
6107,23.4
6108,21.2
6109,28.1
6111,5.6
6112,35.4
6113,28.7
6115,14.9
6117,39.4
6118,20.2
6119,39.8
6121,26.6
6122,0.5
6123,42.1
6125,34.5
6126,40.0
6127,42.2
6130,6.3
6131,42.5
6132,0.5
6133,19.1
6134,25.3
6135,38.4
6136,8.2
6137,30.0
6138,14.3
6140,40.5
6142,3.0
6143,22.0
6146,20.5
6148,8.8
6150,25.0
6153,-4.7
6154,26.7
6155,42.2
6159,10.8
6160,34.1
6163,39.8
6164,39.1
6165,29.4
6170,34.3
6173,37.3
6175,-9.8
6176,5.3
6180,14.4
6181,40.7
6184,23.6
6185,9.6
6187,11.2
6188,33.9
6190,13.6
6191,7.8
6195,12.4
6196,30.1
6198,17.0
6199,15.9
6200,20.4
6209,5.5
6210,13.3
6211,23.9
6215,23.8
6216,29.4
6217,7.8
6221,0.5
6222,42.6
6223,18.3
6225,13.6
6232,0.5
6233,8.3
6236,26.9
6237,30.2
6239,41.7
6241,10.6
6242,10.8
6244,17.7
6246,28.6
6247,36.8
6248,27.7
6253,7.7
6254,-15.0
6257,12.5
6259,23.4
6262,13.0
6265,6.5
6266,33.9
6267,16.3
6269,12.0
6270,16.2
6271,42.9
6276,15.5
6278,18.5
6280,22.0
6283,25.9
6286,5.0
6287,15.3
6289,18.5
6291,21.4
6292,21.9
6293,41.4
6297,20.8
6298,9.9
6299,13.6
6300,5.6
6303,42.5
6308,40.1
6310,3.0
6318,38.6
6322,-2.1
6324,31.3
6326,22.9
6327,17.2
6329,34.5
6330,28.1
6331,34.9
6332,28.9
6333,-9.8
6334,42.1
6335,31.1
6338,37.4
6340,42.0
6344,41.6
6353,8.4
6354,31.4
6355,5.6
6356,41.5
6358,11.3
6359,25.5
6360,18.2
6361,15.2
6362,19.6
6363,41.9
6364,6.4
6366,36.5
6368,35.9
6370,26.2
6377,18.5
6381,18.5
6383,5.1
6384,18.2
6385,33.2
6389,15.9
6391,32.7
6392,35.7
6394,17.2
6400,36.7
6401,3.0
6403,14.9
6404,32.3
6405,28.5
6411,3.0
6412,30.4
6413,14.5
6416,30.3
6421,-2.1
6423,40.0
6424,6.8
6425,23.7
6427,23.0
6429,6.9
6431,5.4
6432,-9.8
6433,14.3
6435,36.5
6438,5.5
6439,16.8
6441,38.9
6442,9.5
6444,41.6
6445,15.5
6446,5.7
6447,33.9
6448,28.0
6449,35.0
6452,25.7
6456,10.8
6457,11.8
6458,35.6
6459,5.9
6460,12.9
6462,19.5
6464,34.2
6465,34.2
6467,26.2
6468,33.1
6469,6.5
6470,24.5
6471,39.8
6472,25.7
6476,20.2
6477,41.0
6478,13.3
6486,28.9
6490,8.2
6493,31.3
6495,5.8
6500,0.5
6501,21.9
6502,25.5
6503,10.8
6504,17.2
6506,28.1
6507,17.8
6509,41.9
6510,0.5
6511,19.5
6512,31.3
6513,32.0
6514,12.9
6515,12.7
6516,14.0
6518,32.4
6519,10.0
6521,5.6
6525,7.1
6526,12.2
6527,42.4
6528,16.4
6529,37.3
6530,24.1
6532,-4.7
6536,24.3
6537,7.0
6538,34.2
6539,21.4
6543,41.6
6545,6.6
6550,32.4
6551,28.0
6553,23.4
6554,-7.2
6555,41.8
6557,27.7
6558,6.6
6559,30.8
6561,9.5
6562,31.6
6564,8.5
6565,31.3
6566,36.9
6567,36.2
6568,28.9
6571,42.2
6575,37.9
6576,8.0
6577,18.5
6579,12.6
6582,37.5
6583,10.5
6584,19.8
6585,8.8
6586,17.7
6589,13.3
6593,15.5
6595,17.9
6597,6.8
6598,11.2
6599,20.2
6600,-2.1
6601,12.1
6603,9.5
6605,27.6
6606,20.3
6609,16.2
6611,-7.2
6612,22.3
6617,31.0
6619,42.5
6620,10.6
6623,44.2
6624,16.9
6626,27.8
6627,22.9
6628,5.3
6631,23.1
6632,15.4
6633,32.0
6634,3.0
6635,16.3
6637,32.6
6638,41.4
6639,7.2
6640,25.2
6643,38.9
6644,36.5
6645,34.4
6646,39.9
6650,39.0
6651,8.0
6657,21.0
6658,33.5
6659,16.0
6660,33.3
6661,36.3
6662,26.7
6663,32.7
6668,15.9
6669,26.9
6671,21.0
6672,35.1
6673,35.5
6674,42.9
6675,10.0
6676,20.5
6679,3.0
6681,14.4
6684,31.7
6689,3.0
6691,26.9
6695,40.1
6697,18.8
6700,-2.1
6701,42.1
6703,10.2
6707,19.6
6708,33.1
6709,16.4
6710,9.9
6711,-12.4
6714,23.5
6715,26.1
6716,22.0
6717,13.2
6718,19.8
6720,20.2
6722,17.6
6723,35.9
6724,41.6
6727,19.9
6728,6.6
6729,20.0
6730,21.5
6731,5.3
6732,6.7
6733,32.8
6735,18.5
6737,38.7
6738,8.3
6739,29.1
6741,15.1
6743,5.3
6745,25.7
6747,21.0
6748,9.6
6749,37.7
6750,27.3
6752,27.5
6754,42.6
6758,8.2
6759,7.2
6763,33.1
6764,29.3
6768,8.2
6770,10.4
6772,10.1
6774,28.1
6778,0.5
6779,17.9
6782,31.2
6785,34.2
6787,22.5
6790,3.0
6793,19.1
6796,22.8
6798,27.7
6800,0.5
6803,13.8
6805,9.3
6806,29.7
6807,12.1
6808,19.9
6810,-7.2
6814,6.9
6820,32.2
6821,39.1
6822,21.4
6823,10.1
6825,41.7
6826,18.3
6827,36.0
6833,-12.4
6837,23.7
6838,16.2
6839,17.2
6842,35.8
6845,26.2
6846,42.3
6849,27.4
6851,10.2
6852,17.1
6853,33.4
6856,41.6
6857,13.3
6861,15.7
6863,15.8
6865,17.5
6868,5.6
6869,24.5
6870,9.7
6873,5.6
6874,26.3
6875,32.3
6877,27.6
6879,0.5
6880,18.2
6883,18.3
6885,13.0
6889,0.5
6893,38.7
6895,37.1
6896,34.0
6897,20.1
6898,20.4
6899,8.2
6900,37.9
6905,27.7
6906,31.1
6909,-7.2
6916,10.7
6917,23.7
6919,23.8
6921,17.0
6922,41.6
6923,20.5
6926,5.5
6927,41.8
6928,20.5
6932,35.8
6933,-7.2
6936,36.9
6937,16.8
6938,21.1
6942,22.0
6943,16.3
6944,31.3
6948,37.8
6951,10.9
6952,21.0
6953,40.0
6954,5.6
6956,15.9
6958,12.5
6965,35.4
6967,13.3
6968,7.4
6970,24.2
6971,6.0
6972,19.2
6974,12.6
6976,5.2
6978,-2.1
6979,21.8
6980,30.8
6981,29.1
6982,8.4
6987,23.9
6989,8.6
6990,-9.8
6991,21.1
6992,18.2
6993,21.7
6994,7.3
6995,9.9
6996,14.7
6998,7.9
6999,14.3
7000,17.4
7002,41.6
7006,21.8
7009,15.1
7010,32.0
7011,41.8
7012,32.8
7013,3.0
7014,18.9
7015,8.7
7018,35.8
7020,31.4
7022,42.5
7023,36.5
7024,22.8
7026,7.1
7027,32.5
7028,9.7
7030,40.5
7032,8.0
7033,29.4
7034,18.5
7036,24.9
7037,26.9
7038,20.1
7044,41.6
7045,40.6
7046,15.9
7048,37.2
7049,20.4
7050,13.2
7051,17.5
7052,38.6
7053,26.0
7055,12.4
7058,0.5
7060,17.2
7066,28.1
7068,0.5
7070,15.0
7072,30.5
7073,22.5
7077,25.8
7078,-4.7
7083,5.3
7085,31.1
7087,6.9
7088,12.1
7090,-9.8
7092,14.2
7093,33.4
7096,23.2
7098,23.0
7101,41.6
7103,32.8
7105,25.6
7110,14.3
7112,5.2
7113,8.2
7115,29.4
7116,26.4
7117,11.2
7119,27.9
7120,21.4
7122,14.2
7123,33.9
7127,12.2
7129,36.1
7131,31.2
7133,27.9
7135,18.5
7143,23.2
7145,34.9
7146,15.9
7147,10.1
7149,26.5
7150,37.7
7151,16.0
7152,6.5
7157,0.5
7158,38.0
7161,40.0
7162,17.2
7166,34.0
7168,0.5
7169,36.0
7171,40.5
7176,39.0
7178,3.0
7179,22.5
7180,28.5
7186,27.6
7187,12.1
7188,11.3
7189,-7.2
7194,23.0
7196,14.0
7197,40.5
7200,39.1
7204,11.1
7208,32.4
7209,38.0
7210,29.8
7211,6.8
7212,-9.8
7214,14.1
7215,11.9
7216,26.9
7217,14.6
7218,42.7
7220,7.5
7221,28.4
7223,33.9
7224,13.7
7226,35.3
7227,24.6
7228,16.1
7229,13.1
7230,16.3
7231,30.1
7232,28.0
7233,25.0
7234,21.0
7237,38.8
7243,5.3
7244,30.6
7245,13.3
7246,17.6
7249,17.2
7250,8.2
7251,37.0
7253,31.2
7254,9.8
7255,19.8
7256,39.8
7257,21.8
7258,0.5
7259,21.6
7264,31.2
7265,28.6
7268,0.5
7271,12.7
7272,41.5
7275,9.7
7278,10.8
7282,5.1
7283,36.6
7287,35.0
7288,42.4
7289,-15.0
7290,13.1
7292,10.9
7298,34.4
7299,21.4
7300,28.8
7301,34.6
7302,36.5
7303,39.7
7305,23.7
7308,22.8
7309,13.3
7310,40.7
7311,20.7
7313,32.6
7314,21.0
7318,31.6
7320,6.3
7324,20.1
7325,18.5
7326,40.3
7328,32.7
7333,6.1
7336,5.6
7337,35.5
7341,5.1
7342,26.2
7343,7.0
7347,3.0
7348,19.4
7349,6.3
7352,28.3
7354,11.4
7355,24.1
7357,-2.1
7358,16.6
7362,28.9
7365,8.2
7368,-9.8
7374,36.3
7376,29.3
7377,35.1
7379,16.3
7380,41.6
7381,7.0
7384,39.1
7385,15.3
7386,30.7
7388,38.0
7390,23.0
7391,33.8
7392,8.2
7395,24.2
7396,21.3
7397,21.0
7398,19.1
7401,40.2
7402,36.5
7404,37.0
7405,21.3
7407,11.1
7409,37.0
7410,14.3
7412,20.4
7413,21.0
7415,35.6
7418,30.2
7419,18.6
7420,37.2
7425,15.9
7426,35.8
7427,20.3
7428,41.3
7429,15.0
7431,20.6
7433,7.7
7436,3.0
7437,26.8
7438,15.2
7440,27.6
7446,29.5
7447,3.0
7448,12.9
7449,24.9
7454,13.3
7457,-4.7
7462,27.3
7463,34.3
7469,-12.4
7470,30.8
7473,33.4
7474,36.9
7475,31.9
7476,37.0
7478,27.7
7480,7.9
7481,39.1
7482,27.8
7484,31.8
7490,21.2
7491,27.4
7492,18.5
7494,28.6
7496,17.0
7497,16.9
7498,37.9
7499,27.7
7500,35.4
7501,12.9
7502,36.3
7503,18.5
7505,34.5
7509,21.6
7511,13.2
7512,10.0
7515,13.5
7516,8.2
7526,8.2
7528,27.4
7532,38.9
7533,8.9
7535,8.8
7536,0.5
7541,32.3
7543,27.3
7544,40.5
7545,25.3
7546,3.0
7548,29.7
7549,30.1
7552,39.6
7557,3.0
7558,17.5
7563,16.0
7566,40.4
7567,-4.7
7570,13.7
7571,5.6
7577,31.6
7578,39.1
7581,11.9
7587,22.1
7589,33.2
7590,-7.2
7591,42.5
7593,38.3
7594,10.2
7598,12.3
7599,27.5
7602,33.9
7607,25.2
7608,39.8
7611,40.7
7613,18.5
7614,16.4
7616,36.4
7622,40.3
7623,11.1
7624,10.8
7625,20.1
7627,22.5
7628,24.2
7629,23.7
7632,37.2
7635,0.5
7637,34.4
7639,25.0
7641,39.5
7644,9.9
7645,22.1
7647,-2.1
7650,29.4
7654,29.7
7657,7.2
7658,36.5
7659,30.0
7662,42.0
7664,16.0
7665,19.7
7666,6.9
7667,31.5
7668,42.5
7669,-20.1
7672,12.6
7673,32.5
7674,26.9
7675,19.1
7678,16.6
7679,33.4
7680,26.8
7682,28.8
7683,25.4
7685,38.1
7688,15.3
7690,5.9
7691,30.8
7692,24.6
7693,15.9
7696,31.1
7698,28.7
7701,26.6
7702,35.3
7704,10.8
7705,12.3
7708,30.8
7709,14.2
7712,5.1
7713,28.6
7716,-4.7
7718,39.9
7719,10.9
7720,20.0
7721,9.5
7722,36.9
7723,7.3
7724,38.4
7726,20.9
7728,-9.8
7730,19.6
7731,10.0
7732,8.8
7733,17.3
7736,39.2
7738,32.8
7739,44.2
7740,31.0
7743,20.4
7744,15.6
7745,24.0
7748,40.2
7749,41.0
7750,10.8
7754,17.3
7756,33.6
7758,18.6
7759,23.8
7760,8.8
7761,28.8
7766,41.7
7768,14.7
7769,21.4
7770,5.2
7773,15.9
7775,7.0
7776,24.9
7777,17.8
7778,34.9
7779,20.8
7781,25.2
7782,10.0
7783,31.0
7784,18.6
7785,8.2
7788,20.8
7790,18.4
7791,17.4
7793,10.8
7795,3.0
7796,38.9
7799,37.7
7800,14.9
7801,34.3
7805,-2.1
7806,27.4
7809,22.9
7813,16.3
7814,10.5
7817,31.3
7818,37.2
7819,12.7
7821,25.1
7822,39.7
7824,42.9
7826,5.6
7827,34.5
7828,-20.1
7829,36.8
7831,36.2
7834,38.0
7838,32.7
7839,22.2
7840,33.9
7843,41.4
7844,20.5
7846,6.7
7848,28.6
7850,35.8
7852,15.2
7853,15.9
7854,39.8
7857,24.5
7858,20.6
7861,11.6
7862,35.3
7863,17.6
7864,10.8
7868,6.8
7870,28.2
7872,25.3
7873,6.2
7875,-2.1
7877,28.1
7878,38.2
7879,33.4
7880,13.1
7881,30.4
7883,5.5
7884,34.3
7886,-9.8
7887,29.2
7888,36.3
7889,23.1
7891,23.4
7892,37.1
7893,36.2
7894,26.9
7898,41.6
7899,23.5
7901,36.9
7908,17.8
7909,5.6
7911,10.8
7913,15.2
7915,13.0
7917,19.8
7920,36.5
7924,15.3
7927,5.5
7929,17.1
7931,18.5
7932,6.6
7935,12.8
7936,33.6
7937,19.4
7939,31.3
7940,16.4
7943,18.5
7946,24.4
7948,42.4
7950,26.8
7951,23.9
7953,29.3
7954,0.5
7958,13.5
7959,14.5
7960,5.7
7962,17.8
7964,3.0
7967,36.5
7968,33.9
7970,6.7
7974,-2.1
7977,30.0
7982,21.4
7983,11.4
7984,28.4
7987,-9.8
7988,15.3
7990,29.7
7992,35.7
7994,6.7
7996,13.9
7997,8.4
7998,41.6
7999,39.6
8000,27.8
8001,34.0
8002,17.6
8003,15.7
8004,37.0
8006,5.7
8008,12.3
8009,10.8
8011,16.9
8014,6.6
8016,8.7
8018,33.3
8019,30.3
8020,28.8
8022,22.9
8027,25.2
8028,22.5
8032,15.9
8033,28.2
8035,41.3
8036,9.3
8037,16.7
8038,24.5
8039,21.2
8042,15.2
8043,8.2
8046,39.5
8047,24.9
8048,11.0
8054,3.0
8057,5.1
8058,24.8
8060,32.5
8064,36.9
8065,3.0
8071,17.2
8072,29.4
8073,38.2
8074,31.5
8075,3.0
8076,35.6
8078,15.5
8080,26.7
8081,11.0
8082,29.6
8085,-7.2
8090,13.4
8095,41.9
8096,39.1
8097,21.3
8098,33.0
8100,18.7
8103,25.8
8104,32.2
8106,33.8
8107,11.3
8108,-9.8
8110,21.0
8113,23.3
8116,40.3
8117,13.0
8118,37.3
8120,33.9
8123,21.9
8125,31.6
8127,19.6
8129,11.9
8130,27.4
8131,18.5
8132,30.0
8133,29.4
8134,30.9
8135,19.1
8136,42.3
8138,25.1
8140,39.0
8141,34.0
8142,13.3
8145,22.8
8147,24.0
8148,16.2
8149,10.6
8150,19.5
8152,18.7
8154,0.5
8157,17.9
8164,-2.1
8165,16.9
8166,28.7
8167,27.6
8168,5.9
8169,21.0
8175,33.9
8176,10.8
8177,10.1
8178,32.5
8179,13.4
8180,23.0
8181,22.1
8183,24.1
8184,27.0
8185,42.3
8187,-20.1
8190,38.6
8191,13.7
8193,30.8
8196,26.8
8199,6.4
8200,31.3
8201,35.9
8203,34.0
8211,15.9
8212,21.3
8213,36.3
8216,38.2
8219,32.1
8220,28.9
8221,22.0
8222,8.2
8223,30.5
8225,26.0
8226,35.8
8230,42.4
8232,3.0
8236,27.1
8237,31.7
8238,7.7
8239,35.1
8241,21.0
8243,3.0
8248,16.9
8252,12.7
8254,-2.1
8255,24.9
8257,42.6
8258,38.4
8259,25.7
8260,28.7
8263,6.5
8264,22.2
8265,-9.8
8269,13.0
8271,24.5
8273,18.4
8275,7.5
8276,41.6
8277,23.8
8280,7.2
8281,27.1
8286,19.0
8288,8.2
8289,42.5
8295,34.0
8297,28.8
8298,36.5
8302,11.4
8303,36.4
8307,13.0
8308,15.0
8309,18.5
8310,24.4
8311,20.6
8314,25.0
8316,37.7
8318,41.5
8320,31.0
8321,20.1
8322,15.9
8326,10.7
8327,27.6
8330,30.9
8332,11.9
8333,3.0
8335,40.6
8337,34.9
8338,27.9
8342,29.0
8343,3.0
8345,17.7
8346,8.4
8348,38.4
8349,25.8
8353,-2.1
8354,10.9
8356,26.5
8357,35.0
8358,24.9
8359,19.7
8361,29.9
8363,34.0
8365,-9.8
8366,24.4
8368,10.1
8370,35.7
8373,29.7
8375,23.6
8376,44.2
8377,39.8
8378,19.7
8381,33.9
8382,41.7
8385,6.4
8387,9.5
8388,10.8
8390,22.3
8392,10.0
8396,23.3
8397,10.6
8399,31.3
8400,26.1
8402,19.7
8403,28.1
8404,13.8
8405,15.4
8409,31.8
8410,30.2
8411,13.3
8414,37.3
8417,30.1
8421,28.1
8422,5.6
8425,22.3
8429,6.8
8431,32.1
8432,0.5
8433,6.7
8435,23.7
8436,22.5
8437,28.3
8438,37.8
8441,34.8
8442,0.5
8454,5.6
8456,37.9
8458,42.9
8461,12.3
8462,18.5
8463,22.0
8464,-7.2
8465,35.4
8466,21.8
8468,33.1
8469,34.1
8470,36.9
8471,30.0
8474,38.4
8475,41.6
8477,8.8
8478,17.5
8481,29.0
8482,30.9
8486,-7.2
8488,34.2
8489,21.7
8492,39.4
8493,18.6
8494,29.5
8495,24.9
8496,28.5
8498,31.3
8499,30.7
8500,33.1
8501,24.6
8502,32.0
8503,15.6
8504,6.7
8506,19.0
8507,24.3
8509,18.5
8510,13.0
8512,41.9
8516,16.8
8517,16.7
8518,23.4
8521,13.3
8524,7.0
8525,40.0
8526,8.9
8527,10.8
8528,13.6
8529,29.6
8532,0.5
8535,17.3
8536,6.9
8538,20.2
8539,42.6
8540,9.3
8542,28.9
8543,-2.1
8545,20.0
8548,40.5
8549,25.3
8550,7.8
8552,6.4
8554,33.9
8555,29.3
8556,38.4
8557,22.1
8558,22.0
8559,7.0
8560,38.5
8563,13.8
8565,-22.7
8568,42.0
8569,35.6
8570,28.8
8571,18.6
8578,24.5
8579,31.3
8581,15.0
8584,42.1
8586,26.8
8590,18.5
8591,16.2
8592,39.8
8594,42.6
8596,36.1
8598,21.1
8600,37.5
8601,10.8
8603,41.2
8609,35.9
8610,7.5
8612,-2.1
8614,13.3
8615,10.1
8616,17.1
8620,13.3
8624,-9.8
8625,23.9
8627,30.2
8630,38.0
8631,18.5
8633,40.9
8634,18.9
8635,44.2
8636,31.8
8639,11.1
8642,39.6
8643,30.4
8647,8.2
8648,30.2
8649,13.9
8650,24.3
8652,41.5
8653,34.4
8654,12.9
8655,6.4
8656,26.5
8657,33.9
8660,8.4
8662,26.3
8665,40.0
8666,30.2
8669,18.5
8670,29.4
8674,42.8
8676,13.6
8679,11.7
8680,13.3
8682,8.4
8683,37.5
8688,33.0
8689,7.6
8691,3.0
8692,18.2
8695,33.1
8699,25.4
8701,0.5
8703,27.2
8704,35.3
8706,5.9
8709,22.7
8710,12.9
8713,5.6
8714,16.1
8715,19.6
8719,22.9
8723,-4.7
8724,14.7
8726,11.7
8727,9.6
8729,33.2
8731,26.7
8732,25.7
8733,29.7
8734,39.1
8737,40.0
8738,23.5
8743,33.1
8744,40.1
8745,-7.2
8746,28.2
8748,21.1
8754,21.8
8757,33.9
8758,17.8
8759,41.0
8760,39.1
8761,7.9
8763,30.2
8767,20.4
8768,21.0
8771,26.0
8778,29.5
8779,40.8
8780,13.3
8785,38.9
8787,8.8
8789,34.9
8791,16.4
8792,0.5
8797,15.4
8798,23.2
8799,31.6
8801,7.2
8802,0.5
8803,27.5
8804,36.1
8807,12.7
8810,23.5
8811,22.1
8812,13.3
8814,6.0
8816,42.9
8817,27.5
8820,32.3
8821,9.8
8822,20.4
8823,-15.0
8824,30.2
8827,42.9
8828,41.9
8830,34.3
8836,39.1
8838,6.1
8844,10.8
8846,41.5
8848,18.5
8850,29.1
8851,41.8
8854,33.5
8855,26.9
8859,15.9
8865,29.5
8866,19.6
8868,36.1
8869,9.4
8870,3.0
8871,38.8
8875,20.8
8877,22.2
8879,9.7
8880,33.4
8881,3.0
8884,42.6
8885,20.7
8886,41.2
8888,5.1
8889,42.9
8891,-2.1
8894,33.4
8896,39.8
8901,15.6
8902,-9.8
8903,35.8
8904,40.0
8906,10.1
8907,37.3
8908,9.9
8911,30.8
8914,39.1
8915,42.2
8917,15.2
8919,27.4
8921,6.5
8922,39.2
8924,12.9
8926,8.2
8928,21.6
8929,21.1
8931,13.4
8933,21.0
8935,18.6
8936,33.9
8938,33.1
8942,8.6
8944,37.8
8945,28.3
8947,18.5
8949,17.4
8951,29.2
8953,15.5
8954,20.3
8955,15.4
8956,6.0
8957,11.2
8958,15.9
8962,14.3
8963,37.6
8966,7.4
8967,16.6
8968,20.0
8969,18.7
8970,3.0
8975,38.5
8976,10.3
8978,35.7
8981,3.0
8984,35.9
8985,9.2
8987,19.6
8989,23.6
8990,9.9
8991,-2.1
8992,13.3
8993,26.6
8994,34.7
8996,18.6
8998,39.4
8999,19.5
9003,-12.4
9004,28.3
9007,17.7
9008,27.1
9015,39.1
9018,11.0
9019,11.9
9020,31.0
9022,19.3
9025,38.5
9026,18.5
9029,35.9
9033,16.3
9036,6.7
9037,21.0
9040,13.2
9041,37.6
9050,5.6
9055,35.1
9056,35.9
9057,17.3
9060,5.6
9067,42.0
9068,33.2
9070,-2.1
9071,17.7
9072,7.4
9076,32.4
9081,-7.2
9082,12.9
9083,40.6
9084,41.8
9087,34.6
9088,40.2
9092,14.7
9093,41.6
9096,25.9
9097,23.3
9101,11.9
9102,39.6
9104,-2.1
9105,13.7
9106,5.0
9108,22.8
9109,14.2
9110,13.9
9112,14.6
9114,18.7
9116,31.3
9117,19.4
9118,33.1
9119,8.2
9121,31.1
9122,16.1
9123,36.5
9124,10.7
9127,15.9
9130,8.5
9134,14.9
9135,34.7
9138,22.4
9139,10.8
9140,24.6
9141,27.4
9143,17.0
9144,7.4
9146,38.2
9147,5.3
9150,-2.1
9151,5.5
9152,17.2
9153,14.3
9155,23.8
9157,21.5
9161,-9.8
9168,8.6
9169,12.4
9172,41.6
9174,31.5
9175,35.6
9176,24.1
9179,7.3
9180,32.5
9183,25.4
9184,41.7
9185,8.2
9186,8.3
9187,12.8
9188,8.2
9190,8.5
9191,7.5
9192,13.7
9195,36.5
9199,23.3
9200,20.7
9201,29.0
9205,40.9
9206,18.5
9209,5.6
9216,35.3
9217,7.9
9218,13.3
9220,22.3
9221,6.7
9222,30.5
9223,29.0
9224,17.2
9225,16.4
9226,17.6
9227,22.3
9228,7.0
9229,3.0
9236,29.4
9239,0.5
9242,29.8
9246,5.1
9247,37.8
9249,36.2
9250,-2.1
9256,29.9
9257,14.3
9259,35.7
9260,7.7
9262,-9.8
9266,40.8
9267,11.8
9268,33.2
9270,5.5
9271,6.3
9273,41.6
9280,12.0
9281,7.1
9282,41.4
9283,21.4
9284,10.8
9286,17.7
9287,29.6
9289,40.8
9290,39.6
9291,5.7
9294,17.4
9295,28.8
9296,36.6
9297,11.4
9299,33.2
9300,8.6
9303,35.0
9306,6.0
9307,15.9
9311,20.5
9314,6.4
9315,17.0
9317,14.7
9319,5.6
9320,33.1
9321,26.5
9327,5.7
9329,0.5
9332,42.4
9333,20.3
9334,38.9
9335,12.8
9337,33.1
9338,10.3
9339,0.5
9340,10.2
9341,10.2
9342,6.4
9347,42.7
9350,8.2
9354,13.8
9355,42.1
9356,10.0
9357,30.3
9359,6.8
9360,-7.2
9363,19.4
9367,29.9
9368,8.6
9369,30.2
9371,41.6
9372,28.3
9375,6.8
9376,7.9
9378,33.8
9380,14.7
9381,16.7
9382,13.5
9383,-4.7
9385,8.8
9390,13.7
9391,11.6
9392,11.9
9395,31.3
9398,19.4
9400,42.0
9402,35.3
9403,11.0
9405,32.9
9406,18.5
9411,14.7
9413,36.6
9414,20.6
9415,15.8
9416,9.8
9417,10.8
9419,16.6
9423,24.0
9424,16.3
9427,35.6
9428,-2.1
9431,28.2
9433,21.3
9434,5.2
9435,15.0
9437,24.5
9438,21.3
9439,15.2
9440,-9.8
9441,33.3
9449,32.7
9451,27.2
9452,44.2
9453,18.6
9457,21.6
9458,22.2
9459,30.5
9461,28.8
9462,37.9
9463,5.6
9465,14.2
9468,30.2
9469,25.9
9471,28.8
9474,36.5
9476,11.7
9478,22.9
9484,13.8
9485,18.5
9487,20.4
9489,34.4
9493,17.7
9494,11.7
9496,15.9
9498,19.6
9499,41.5
9502,19.1
9503,17.6
9505,37.2
9507,3.0
9508,15.2
9510,34.0
9511,19.8
9512,11.0
9513,34.9
9514,38.1
9516,24.4
9518,28.5
9519,3.0
9520,20.8
9522,16.4
9529,-2.1
9532,15.1
9533,34.7
9534,19.0
9535,14.5
9537,37.3
9540,-9.8
9541,31.5
9542,11.1
9543,38.4
9545,34.5
9546,41.1
9547,40.1
9548,20.0
9551,41.6
9553,32.3
9556,30.3
9557,17.8
9559,26.3
9560,31.6
9563,8.2
9565,31.6
9567,20.5
9568,34.0
9570,38.5
9571,26.9
9572,38.8
9573,33.9
9578,33.4
9581,10.9
9584,12.7
9585,21.0
9587,39.6
9588,33.7
9589,19.8
9590,40.1
9591,10.7
9594,8.9
9596,15.9
9599,23.0
9600,11.0
9602,22.4
9606,29.5
9607,40.5
9608,3.0
9612,41.1
9615,33.3
9616,25.8
9617,13.5
9618,3.0
9619,15.3
9622,40.7
9626,15.9
9627,25.8
9628,0.5
9629,24.0
9630,21.3
9631,30.4
9633,6.0
9635,34.8
9636,19.9
9638,-7.2
9641,25.5
9644,16.2
9649,22.9
9651,39.1
9652,29.3
9656,28.4
9658,33.6
9659,33.8
9660,34.9
9662,-9.8
9665,7.9
9670,8.7
9673,33.9
9674,37.7
9678,30.6
9679,24.0
9682,8.9
9683,39.1
9684,18.5
9685,24.6
9686,12.5
9688,22.6
9692,6.1
9693,5.9
9696,13.3
9698,35.6
9699,23.0
9700,19.4
9701,22.9
9703,11.3
9707,0.5
9708,36.5
9710,5.2
9715,8.6
9716,25.4
9718,-2.1
9720,21.1
9722,23.3
9723,26.0
9725,32.0
9726,26.1
9729,10.3
9730,33.9
9732,32.8
9733,26.8
9741,-22.7
9742,9.5
9744,42.2
9751,42.2
9752,20.1
9753,31.3
9754,12.5
9758,34.2
9760,34.8
9764,15.9
9767,21.8
9770,12.0
9771,29.4
9777,8.2
9778,36.9
9779,33.4
9782,42.7
9783,29.0
9784,19.8
9785,31.7
9786,18.1
9787,5.6
9788,20.4
9789,39.9
9790,12.3
9791,9.1
9792,10.3
9794,40.4
9797,3.0
9800,37.7
9801,27.4
9802,39.2
9807,0.5
9808,5.4
9809,20.0
9814,26.8
9816,24.2
9817,30.3
9818,-2.1
9819,42.8
9820,9.2
9821,29.4
9822,31.7
9823,19.6
9826,16.1
9829,36.5
9830,22.5
9835,28.6
9837,22.2
9838,30.5
9839,20.6
9840,-22.7
9841,38.8
9843,13.5
9844,17.5
9845,27.8
9846,6.2
9852,41.3
9853,28.8
9855,9.1
9863,18.3
9865,15.9
9867,34.4
9869,6.0
9870,20.3
9871,32.3
9872,26.6
9874,15.3
9876,8.2
9877,27.2
9878,33.9
9880,8.1
9882,13.6
9884,15.3
9886,0.5
9889,15.3
9890,23.1
9892,30.3
9894,36.7
9895,30.0
9896,0.5
9897,12.8
9898,31.1
9899,25.3
9900,8.8
9901,6.7
9902,26.4
9904,35.3
9906,15.1
9907,-2.1
9911,32.7
9913,41.3
9914,37.9
9915,23.8
9917,13.2
9918,7.8
9919,-12.4
9920,14.5
9921,25.7
9923,8.9
9926,5.4
9928,15.8
9929,29.9
9931,39.1
9932,27.4
9935,30.0
9936,34.3
9937,6.8
9942,16.8
9943,18.5
9944,39.2
9945,11.1
9948,39.7
9949,10.7
9951,26.3
9954,23.6
9956,38.5
9957,37.4
9958,40.2
9960,20.4
9962,25.7
9964,6.3
9965,5.6
9968,41.7
9969,38.3
9970,27.9
9972,14.4
9975,10.5
9976,5.6
9979,41.3
9980,34.2
9981,14.8
9982,39.0
9987,0.5
9988,40.5
9989,16.5
9990,14.9
9992,10.9
9993,7.3
9995,17.1
9996,7.8
9997,0.5
10003,7.3
10005,23.2
10007,3.0
10009,42.4
10013,8.7
10014,36.8
10015,40.3
10018,-12.4
10019,8.8
10021,40.0
10022,19.5
10024,8.0
10025,34.9
10029,8.8
10032,31.3
10034,31.7
10037,8.3
10038,23.8
10040,12.7
10043,10.1
10044,31.8
10045,10.8
10046,27.2
10048,16.8
10049,37.2
10050,5.6
10051,10.1
10054,39.4
10057,-4.7
10061,30.4
10062,5.2
10063,41.9
10064,24.8
10068,35.5
10069,8.4
10070,41.6
10071,8.5
10073,10.0
10075,25.3
10076,37.3
10079,16.4
10080,10.2
10081,23.4
10082,21.0
10083,31.5
10084,34.4
10085,28.1
10086,41.9
10089,23.1
10090,24.4
10091,23.7
10092,16.2
10093,21.3
10094,15.9
10096,28.0
10097,14.1
10098,35.0
10103,8.0
10104,39.9
10106,13.3
10107,24.0
10108,28.4
10111,9.2
10113,42.5
10114,9.6
10116,26.9
10119,15.9
10120,-20.1
10121,14.5
10122,10.8
10125,18.2
10126,38.3
10127,7.9
10128,14.0
10133,21.0
10135,40.0
10137,13.3
10139,7.0
10141,27.7
10144,21.5
10145,3.0
10146,30.2
10148,19.8
10149,20.4
10152,14.6
10154,18.1
10155,11.4
10156,17.3
10157,-4.7
10158,33.8
10159,23.9
10160,16.9
10166,7.9
10169,41.6
10182,18.5
10184,10.3
10185,18.8
10186,23.5
10187,35.7
10190,40.5
10191,22.7
10192,25.6
10193,31.8
10194,13.3
10195,15.5
10196,25.0
10197,39.6
10199,21.2
10200,28.0
10202,24.3
10203,42.3
10204,27.7
10206,42.3
10207,21.0
10209,6.2
10212,9.0
10213,42.6
10214,31.6
10215,17.9
10217,22.2
10218,40.7
10219,-22.7
10220,39.8
10222,12.9
10223,18.8
10226,24.2
10228,38.7
10229,37.4
10232,21.0
10234,12.0
10235,29.2
10241,8.3
10243,10.9
10244,20.4
10246,0.5
10248,33.9
10249,18.7
10250,18.9
10252,14.8
10254,38.2
10257,-7.2
10260,23.1
10261,30.2
10262,8.2
10263,37.6
10264,29.8
10266,15.4
10269,41.6
10270,36.9
10271,5.2
10276,36.1
10280,24.4
10281,21.0
10282,41.3
10283,21.0
10284,11.8
10286,6.5
10287,31.6
10288,21.9
10291,35.7
10292,38.3
10293,5.1
10294,10.8
10299,29.3
10300,35.9
10301,20.5
10303,27.8
10304,30.5
10305,42.6
10306,23.6
10311,35.6
10314,8.8
10315,10.2
10317,10.3
10319,-15.0
10321,22.9
10323,11.4
10324,24.1
10325,9.2
10326,18.3
10327,35.1
10329,11.1
10332,13.7
10333,21.0
10335,26.0
10338,11.9
10342,26.1
10343,15.8
10345,0.5
10346,25.4
10347,22.9
10350,37.9
10353,25.0
10354,18.6
10355,28.0
10356,-9.8
10357,27.6
10360,6.2
10364,15.4
10365,6.5
10369,41.6
10370,33.5
10371,15.2
10373,28.0
10377,9.4
10379,19.2
10382,18.5
10383,34.7
10385,31.8
10386,40.6
10390,18.2
10391,6.1
10393,37.4
10394,8.2
10397,34.4
10399,12.4
10400,41.8
10404,40.9
10405,0.5
10406,40.3
10408,11.3
10409,29.4
10411,27.5
10415,40.1
10416,5.3
10417,-12.4
10423,40.3
10424,16.0
10425,29.3
10426,40.6
10427,18.7
10429,23.6
10430,33.9
10431,42.3
10439,27.8
10440,22.6
10443,13.3
10445,14.1
10447,9.8
10448,25.5
10450,37.4
10451,5.9
10454,16.4
10455,28.6
10456,-2.1
10457,39.6
10462,32.1
10464,17.5
10467,16.4
10468,41.6
10475,28.3
10478,38.1
10480,18.5
10481,9.8
10484,34.0
10488,33.9
10489,8.6
10491,29.9
10492,13.3
10493,15.9
10494,26.1
10496,35.4
10497,15.9
10499,38.6
10501,9.9
10502,6.4
10505,10.8
10506,8.2
10509,24.4
10510,26.1
10512,28.2
10513,5.9
10516,13.4
10517,18.1
10518,-22.7
10519,42.3
10522,26.3
10524,32.0
10526,5.9
10528,42.8
10529,22.7
10530,27.2
10531,23.6
10532,9.4
10533,10.5
10537,13.4
10540,30.1
10544,5.6
10546,32.6
10547,32.3
10549,14.5
10553,39.9
10554,14.1
10555,-4.7
10557,32.4
10558,27.7
10560,5.5
10561,35.9
10562,26.0
10564,41.4
10565,39.8
10566,34.8
10567,41.6
10569,27.5
10574,16.6
10576,34.2
10580,21.0
10584,25.7
10586,15.6
10587,26.9
10589,33.0
10592,36.7
10593,13.3
10600,27.9
10603,21.3
10605,15.9
10606,29.2
10609,31.2
10611,18.7
10613,10.8
10614,28.1
10617,-22.7
10619,25.6
10620,5.6
10621,7.5
10622,6.8
10623,17.6
10624,22.5
10626,13.9
10628,33.7
10630,19.1
10631,21.0
10634,39.0
10635,8.2
10637,17.1
10638,21.9
10639,8.5
10642,13.5
10643,30.2
10644,0.5
10645,7.6
10647,27.3
10648,26.0
10649,10.3
10651,13.4
10652,5.8
10655,-7.2
10657,15.7
10658,23.2
10661,20.1
10662,28.3
10663,29.3
10665,37.3
10666,16.2
10667,16.4
10668,41.6
10669,34.4
10672,24.0
10674,39.6
10675,17.3
10677,38.3
10679,5.3
10680,21.0
10684,15.7
10685,12.0
10687,33.3
10688,39.2
10689,11.6
10690,16.5
10691,5.2
10692,10.8
10694,6.2
10697,8.0
10704,23.6
10706,32.0
10708,16.7
10709,32.4
10710,18.0
10711,40.8
10712,20.1
10716,9.1
10718,-17.5
10726,25.3
10727,17.0
10729,15.7
10730,41.4
10731,21.0
10732,40.3
10733,19.6
10734,36.7
10735,26.4
10736,19.4
10738,11.2
10740,11.3
10743,0.5
10744,22.2
10747,14.1
10749,34.0
10750,13.4
10751,10.5
10752,35.2
10753,30.7
10754,16.1
10755,-7.2
10756,11.9
10757,13.4
10758,8.1
10759,29.3
10760,40.0
10764,10.3
10767,41.6
10769,19.7
10771,6.8
10773,5.8
10775,36.5
10776,28.0
10777,19.9
10780,18.5
10782,39.4
10785,31.2
10787,27.8
10791,21.8
10792,8.2
10797,8.8
10800,16.2
10801,11.0
10802,10.3
10804,-4.7
10805,10.0
10811,16.5
10812,20.5
10813,25.6
10814,34.2
10816,-17.5
10817,39.4
10821,18.6
10823,14.1
10824,11.7
10825,20.4
10829,26.2
10832,28.0
10833,23.0
10834,42.6
10835,5.2
10837,13.4
10839,9.8
10841,18.5
10842,6.3
10843,8.2
10844,13.2
10848,36.9
10849,27.3
10850,24.0
10851,16.5
10852,34.6
10854,-2.1
10856,36.2
10857,5.3
10861,10.7
10863,20.9
10866,44.2
10867,30.5
10869,6.9
10871,26.9
10874,29.4
10875,13.0
10876,28.5
10878,18.5
10881,23.6
10882,23.5
10883,27.9
10886,5.1
10888,29.6
10889,12.0
10891,13.3
10892,27.1
10898,18.0
10903,5.6
10904,8.8
10906,10.6
10907,37.0
10908,19.3
10910,32.3
10915,-12.4
10918,15.7
10920,23.7
10922,24.5
10925,19.0
10926,41.9
10928,16.7
10929,33.9
10930,32.6
10931,27.0
10934,28.6
10935,39.1
10939,13.6
10941,13.3
10943,15.9
10947,34.6
10951,32.6
10953,-2.1
10954,42.1
10958,10.2
10961,13.9
10964,41.6
10966,41.6
10969,29.7
10975,22.8
10976,39.8
10977,25.3
10978,7.9
10979,18.5
10980,17.6
10981,16.0
10982,32.9
10985,36.8
10991,13.3
10994,21.9
10995,34.7
10996,9.5
10998,16.2
10999,33.8
11000,12.4
11001,28.3
11002,39.7
11003,13.3
11004,40.0
11007,30.5
11008,42.0
11009,21.3
11010,21.0
11012,21.3
11016,-20.1
11018,7.2
11021,11.7
11023,22.9
11024,39.1
11025,20.9
11027,9.8
11028,34.8
11029,23.6
11031,11.1
11032,8.3
11034,31.6
11035,17.2
11039,25.8
11042,3.0
11043,20.5
11045,7.8
11048,32.4
11052,7.3
11054,-4.7
11056,10.0
11057,7.6
11063,9.3
11066,41.6
11070,23.2
11071,25.8
11072,40.2
11073,5.9
11074,28.9
11075,23.2
11076,21.2
11078,21.0
11083,17.7
11086,10.1
11087,12.5
11090,10.8
11091,23.5
11093,25.5
11095,27.3
11096,7.7
11098,10.2
11102,36.1
11103,21.0
11104,24.6
11105,15.8
11107,24.5
11109,20.7
11111,39.6
11112,8.2
11113,15.9
11116,-22.7
11119,10.8
11120,16.8
11124,5.8
11126,6.1
11129,21.0
11130,33.4
11132,22.2
11133,17.8
11135,39.5
11139,26.7
11140,25.4
11142,0.5
11144,39.5
11145,10.6
11147,14.2
11148,31.5
11149,12.9
11150,14.9
11153,-4.7
11154,18.1
11160,30.0
11163,24.1
11164,19.4
11165,41.6
11166,28.3
11167,9.8
11169,23.2
11173,41.6
11177,32.1
11179,18.5
11180,8.9
11182,30.0
11184,12.7
11190,31.0
11191,8.2
11192,20.7
11193,26.7
11196,38.5
11198,18.0
11199,13.0
11202,-2.1
11203,24.9
11205,6.6
11206,8.7
11207,15.4
11209,38.1
11210,36.0
11214,-17.5
11215,35.5
11216,11.2
11217,21.3
11218,16.1
11224,21.4
11225,37.9
11226,38.3
11227,38.1
11228,26.2
11229,19.0
11230,35.6
11231,23.5
11235,42.8
11239,17.0
11241,5.6
11243,18.1
11247,41.6
11252,-2.1
11253,39.6
11257,23.6
11258,36.7
11263,30.6
11265,41.6
11268,16.9
11269,33.6
11273,28.3
11274,42.1
11276,14.9
11277,15.9
11279,21.8
11283,16.2
11286,21.2
11287,11.3
11289,18.5
11292,35.9
11293,27.0
11295,31.9
11299,36.6
11300,5.8
11301,0.5
11302,20.5
11303,10.2
11304,5.2
11305,20.7
11306,9.9
11307,26.6
11309,17.4
11310,25.3
11313,17.7
11314,-12.4
11315,9.2
11316,36.1
11321,7.1
11326,21.0
11327,31.3
11329,9.8
11332,22.0
11333,20.9
11334,23.7
11335,27.7
11336,13.8
11337,17.1
11338,5.8
11339,13.3
11341,21.8
11342,34.5
11343,14.8
11345,38.3
11349,37.9
11350,7.8
11351,26.9
11352,-2.1
11355,16.4
11356,38.0
11360,30.0
11364,41.6
11366,39.2
11368,12.1
11371,34.9
11373,16.1
11376,23.8
11377,18.5
11381,25.9
11383,37.6
11385,40.5
11389,13.3
11390,31.6
11391,32.7
11393,5.2
11394,39.6
11397,42.0
11398,32.5
11399,22.6
11400,38.3
11401,19.2
11402,10.8
11404,37.8
11405,16.1
11406,29.9
11409,22.4
11414,-20.1
11420,12.7
11421,29.7
11427,23.6
11431,25.1
11432,8.6
11433,22.2
11435,30.9
11439,41.0
11441,3.0
11444,42.4
11447,10.5
11450,14.2
11452,-4.7
11453,21.9
11454,32.8
11457,10.9
11460,7.1
11461,26.6
11462,31.7
11463,17.0
11464,41.6
11465,32.3
11468,20.0
11469,20.2
11471,32.7
11472,5.4
11473,12.5
11474,28.9
11475,30.5
11476,18.5
11478,37.3
11480,34.8
11481,35.7
11482,21.2
11484,5.2
11489,10.8
11494,7.6
11496,10.3
11499,35.2
11500,10.8
11501,18.5
11504,36.2
11507,37.0
11508,38.9
11510,32.4
11512,24.7
11513,24.1
11514,-22.7
11519,15.2
11520,19.7
11522,14.6
11528,21.0
11530,41.7
11531,25.6
11536,12.8
11537,33.6
11538,21.1
11539,22.2
11540,0.5
11541,26.9
11543,5.9
11545,35.0
11547,11.3
11548,42.1
11550,25.5
11551,-7.2
11553,20.4
11557,32.5
11559,29.2
11560,31.5
11562,19.5
11564,41.6
11569,37.4
11571,29.3
11573,14.6
11576,39.9
11577,18.5
11579,38.8
11583,38.3
11585,27.8
11586,5.9
11587,42.4
11588,39.9
11589,10.8
11590,15.6
11595,32.2
11598,7.0
11599,37.9
11600,10.5
11601,23.6
11606,28.6
11607,34.0
11609,8.6
11610,26.4
11612,13.2
11614,-15.0
11616,6.9
11618,29.8
11619,38.8
11620,5.0
11621,9.1
11622,17.6
11625,19.9
11627,21.0
11631,23.1
11632,34.9
11633,25.2
11637,31.3
11640,-2.1
11648,31.9
11650,7.3
11652,38.4
11653,-15.0
11654,13.2
11655,24.9
11659,24.4
11660,29.3
11661,32.7
11662,6.4
11664,14.7
11666,28.8
11667,7.6
11669,15.7
11671,15.3
11674,7.4
11678,10.8
11681,20.4
11683,39.0
11685,17.9
11688,31.1
11689,36.7
11691,-4.7
11693,12.3
11695,29.1
11698,8.9
11701,24.6
11703,41.6
11705,13.3
11706,16.8
11709,17.1
11711,24.2
11713,12.5
11714,28.7
11715,5.5
11716,21.0
11717,40.0
11719,24.6
11720,17.1
11723,15.7
11725,9.2
11726,37.0
11727,22.1
11728,10.8
11729,15.0
11730,8.5
11731,40.2
11734,6.4
11736,38.8
11741,21.0
11743,35.0
11744,30.0
11751,20.4
11752,28.0
11753,-20.1
11754,31.4
11755,29.5
11756,12.8
11757,31.7
11758,21.6
11759,9.1
11761,24.6
11762,19.8
11763,42.3
11766,21.0
11771,24.7
11772,21.1
11773,8.2
11778,26.7
11779,36.4
11780,-2.1
11783,19.6
11788,18.5
11789,33.0
11790,24.8
11792,-15.0
11793,30.2
11798,11.1
11804,7.5
11805,31.3
11807,38.1
11808,32.3
11812,37.9
11813,17.6
11815,42.2
11816,12.9
11817,8.2
11818,12.2
11819,18.5
11822,25.5
11824,27.3
11825,21.0
11826,21.7
11828,10.7
11829,3.0
11831,19.0
11832,18.9
11834,14.1
11835,14.4
11836,29.9
11839,34.3
11841,26.2
11843,24.3
11844,15.7
11849,19.7
11850,30.1
11851,8.6
11853,-7.2
11855,39.4
11857,31.6
11860,17.7
11863,6.6
11864,30.9
11866,26.2
11868,25.5
11869,15.2
11871,21.2
11874,25.8
11875,28.0
11876,12.9
11878,5.6
11880,36.0
11881,34.5
11883,5.2
11884,35.0
11885,18.0
11886,11.0
11889,-2.1
11891,36.4
11892,11.8
11895,33.7
11897,21.3
11898,26.3
11900,29.6
11901,41.6
11902,14.7
11904,7.6
11905,19.1
11906,33.1
11913,7.3
11914,17.2
11915,18.5
11918,38.2
11919,19.1
11920,16.4
11922,9.0
11923,14.1
11927,15.9
11935,35.5
11936,22.8
11937,12.2
11939,3.0
11942,39.8
11944,25.3
11945,26.4
11946,22.9
11949,38.7
11951,-12.4
11955,37.0
11956,29.3
11957,34.1
11959,13.5
11961,37.9
11964,31.3
11970,37.1
11972,41.1
11973,35.1
11975,22.8
11977,13.3
11981,40.0
11982,41.1
11986,9.4
11987,38.4
11990,-2.1
11993,24.0
11994,10.3
11995,9.9
12000,32.8
12001,29.8
12002,44.2
12003,40.0
12004,12.5
12006,34.6
12009,7.3
12010,21.8
12011,8.2
12012,7.8
12014,18.5
12015,36.4
12017,32.2
12019,15.6
12020,12.4
12021,30.7
12022,23.6
12025,38.8
12026,13.3
12029,41.6
12031,18.3
12034,30.0
12036,37.3
12037,31.3
12039,22.0
12040,10.8
12041,22.8
12042,33.8
12045,36.7
12046,34.8
12047,39.3
12049,40.5
12050,30.8
12052,-22.7
12053,27.1
12055,23.0
12056,19.3
12060,32.0
12061,21.5
12062,34.3
12065,23.6
12068,20.3
12069,22.3
12070,16.2
12071,28.1
12072,32.5
12073,19.3
12074,37.5
12075,12.4
12078,3.0
12082,34.6
12084,5.6
12085,28.4
12089,-4.7
12090,18.9
12094,11.1
12097,36.3
12098,15.7
12099,10.3
12101,41.6
12102,30.6
12104,30.9
12105,18.9
12106,34.7
12107,28.7
12111,41.4
12113,11.9
12114,18.5
12115,36.8
12117,27.0
12118,33.9
12119,14.3
12122,28.7
12126,5.5
12127,13.3
12128,5.8
12129,31.3
12133,23.2
12135,14.2
12139,18.5
12140,6.9
12142,9.3
12144,23.7
12145,29.3
12147,9.3
12150,39.5
12151,-22.7
12158,17.5
12160,33.3
12163,8.7
12165,23.6
12166,7.6
12167,31.9
12170,39.6
12173,20.9
12175,6.2
12176,6.2
12178,0.5
12180,20.3
12184,26.3
12185,32.3
12187,30.4
12189,-4.7
12191,37.1
12196,39.6
12197,27.7
12201,41.6
12202,37.8
12203,39.9
12210,12.7
12212,17.1
12214,21.0
12215,24.3
12217,32.1
12220,18.6
12221,39.0
12223,27.8
12226,10.8
12227,9.1
12228,26.7
12232,22.9
12233,8.5
12239,26.2
12241,14.6
12242,14.2
12246,39.1
12249,24.2
12252,-12.4
12255,20.7
12256,29.1
12257,37.4
12261,30.8
12262,14.1
12263,10.9
12265,21.0
12266,38.3
12267,8.5
12269,42.8
12272,23.8
12273,10.3
12274,30.0
12275,21.1
12277,-2.1
12278,10.6
12282,24.7
12284,16.8
12286,25.5
12287,15.0
12289,38.8
12290,-15.0
12292,39.3
12293,42.6
12295,23.9
12296,9.9
12299,5.1
12303,28.8
12306,35.8
12311,31.2
12313,32.9
12316,8.2
12318,30.0
12321,5.8
12322,19.9
12323,6.9
12327,0.5
12329,16.6
12330,33.4
12331,35.0
12334,17.1
12336,27.4
12339,28.8
12342,26.3
12347,17.8
12348,12.9
12351,-7.2
12353,10.4
12356,38.3
12358,20.2
12359,29.8
12360,32.7
12362,38.4
12363,26.2
12364,31.5
12365,12.5
12366,13.9
12368,39.1
12374,37.1
12377,5.6
12379,39.6
12380,19.5
12384,32.1
12385,36.6
12388,-2.1
12390,12.6
12391,5.5
12393,39.5
12394,7.2
12399,6.4
12400,41.6
12403,7.0
12404,36.2
12405,27.4
12409,7.5
12410,21.8
12412,18.5
12413,9.3
12414,5.1
12415,40.7
12416,37.4
12417,25.2
12422,6.7
12425,13.3
12430,25.0
12431,42.3
12433,13.8
12437,31.6
12438,8.2
12439,15.6
12440,17.7
12442,38.5
12444,27.8
12449,-15.0
12451,11.8
12453,31.0
12459,28.6
12460,13.7
12463,31.3
12464,40.1
12466,31.8
12467,29.1
12468,20.9
12470,8.4
12472,34.3
12475,10.8
12476,20.0
12479,25.3
12481,29.4
12482,24.5
12483,35.8
12484,10.3
12485,10.2
12487,-4.7
12488,29.1
12491,24.8
12493,18.3
12495,42.4
12497,33.9
12499,41.6
12500,16.5
12502,22.4
12503,31.5
12505,14.7
12507,22.4
12508,5.1
12511,18.2
12513,18.5
12515,32.3
12516,7.8
12518,36.5
12520,42.9
12522,6.4
12524,18.3
12525,13.3
12528,25.8
12532,13.1
12533,34.6
12535,14.3
12536,37.8
12537,15.9
12538,21.4
12541,40.3
12542,28.0
12543,28.5
12549,16.0
12550,-22.7
12553,10.3
12556,26.2
12557,42.5
12559,33.4
12561,10.3
12563,23.6
12564,21.0
12565,13.8
12566,43.0
12568,32.9
12569,18.5
12574,6.1
12575,32.7
12576,0.5
12577,20.4
12581,23.5
12582,23.2
12585,37.9
12586,24.3
12587,23.2
12588,-7.2
12590,38.0
12591,9.8
12592,25.2
12594,35.8
12595,13.2
12596,40.2
12597,21.4
12598,25.0
12599,30.3
12600,39.1
12603,18.6
12604,8.3
12605,29.9
12606,38.4
12608,34.7
12612,18.5
12613,11.1
12614,40.1
12615,11.5
12617,11.0
12624,10.8
12625,21.2
12626,21.5
12627,24.6
12628,31.3
12629,5.4
12634,31.6
12635,12.4
12637,23.6
12639,29.5
12641,8.3
12644,20.0
12645,36.0
12647,11.4
12649,25.9
12650,-17.5
12652,29.4
12654,30.7
12656,32.1
12659,41.8
12663,21.0
12666,5.0
12667,16.1
12668,27.2
12669,35.7
12670,26.5
12672,9.0
12674,17.3
12676,0.5
12679,28.7
12681,23.3
12683,10.8
12687,-7.2
12689,17.3
12691,27.9
12696,23.8
12698,16.3
12699,39.1
12704,25.9
12705,12.1
12706,26.2
12711,41.5
12712,18.5
12713,25.2
12719,17.0
12721,40.1
12722,39.9
12724,40.8
12725,10.8
12727,16.1
12728,34.4
12733,9.2
12734,41.0
12735,19.7
12736,23.3
12737,28.8
12739,27.1
12740,26.7
12741,41.2
12742,10.3
12745,41.4
12746,37.8
12747,38.0
12748,18.3
12749,-7.2
12755,8.5
12757,25.2
12760,8.1
12761,9.3
12762,23.6
12763,42.1
12764,25.0
12765,6.5
12766,38.2
12767,18.7
12768,6.7
12772,32.3
12773,12.0
12775,5.6
12776,15.3
12777,31.8
12782,11.9
12783,41.0
12786,-2.1
12787,26.3
12790,38.8
12794,18.3
12795,22.6
12796,6.9
12797,13.9
12798,41.6
12799,5.6
12802,10.4
12803,12.5
12804,9.7
12807,32.8
12808,10.7
12810,29.1
12811,18.5
12812,7.4
12813,24.3
12814,36.8
12820,6.4
12823,15.9
12824,15.5
12825,26.7
12826,41.8
12832,20.3
12834,29.4
12835,5.6
12836,18.1
12837,42.8
12838,11.2
12841,37.3
12842,20.5
12843,13.0
12847,9.5
12848,-12.4
12849,26.3
12850,19.6
12851,38.7
12854,5.5
12855,41.2
12858,29.3
12859,5.8
12860,10.2
12861,33.9
12863,14.9
12865,11.6
12867,19.6
12868,32.0
12869,10.3
12871,31.7
12872,26.8
12873,10.8
12874,18.8
12875,22.8
12876,35.1
12877,29.1
12878,42.8
12881,31.5
12884,17.4
12886,-4.7
12888,38.6
12890,31.2
12893,35.7
12895,34.0
12898,41.6
12899,16.6
12900,40.9
12901,41.5
12902,19.0
12904,20.5
12905,34.5
12910,23.8
12911,18.5
12914,6.9
12915,19.5
12916,39.3
12919,35.0
12923,13.3
12927,18.8
12929,16.5
12930,40.7
12931,13.3
12932,17.6
12933,7.5
12936,13.3
12937,19.5
12938,21.3
12939,25.9
12940,25.4
12941,36.3
12942,18.4
12944,38.2
12945,12.5
12947,33.4
12948,-20.1
12950,15.2
12961,21.0
12963,12.5
12964,16.3
12965,33.2
12968,13.7
12970,40.7
12971,18.4
12972,25.8
12973,21.3
12974,11.1
12975,0.5
12977,20.8
12978,23.8
12981,21.5
12982,19.9
12985,16.4
12986,-7.2
12987,16.9
12988,10.9
12989,37.7
12990,35.8
12992,23.0
12993,24.9
12995,5.2
12997,24.3
12998,39.1
13000,28.1
13003,14.3
13005,34.4
13006,29.7
13010,18.5
13011,34.3
13018,28.2
13019,13.3
13023,13.3
13024,36.5
13026,14.6
13030,14.3
13033,42.1
13035,21.0
13036,21.4
13042,27.7
13043,17.8
13045,25.4
13048,-20.1
13050,18.5
13052,34.0
13053,35.0
13058,17.1
13059,7.3
13060,42.8
13062,23.6
13063,6.2
13065,11.6
13068,15.2
13070,22.6
13072,32.8
13073,5.3
13074,0.5
13076,22.4
13077,15.7
13079,39.9
13080,33.8
13085,-7.2
13086,33.8
13087,26.6
13093,31.5
13097,41.6
13099,22.0
13100,39.8
13101,23.6
13103,10.4
13105,41.9
13107,17.0
13111,18.5
13112,29.1
13115,40.0
13116,30.3
13117,41.8
13118,5.2
13123,10.8
13124,26.4
13127,6.1
13130,21.0
13131,17.7
13132,42.7
13134,9.2
13135,26.2
13136,6.5
13137,10.0
13140,31.5
13142,5.2
13143,42.7
13146,5.9
13148,-12.4
13150,12.0
13153,26.4
13155,16.8
13158,18.0
13160,38.6
13161,18.5
13163,10.3
13164,22.6
13165,15.1
13166,31.0
13169,30.5
13171,13.8
13174,-2.1
13177,13.5
13181,23.7
13184,37.6
13185,33.8
13187,-15.0
13188,12.1
13191,35.3
13194,32.5
13197,8.8
13200,28.8
13208,10.4
13211,30.0
13212,8.2
13221,26.9
13222,15.4
13223,0.5
13224,38.0
13226,20.2
13228,12.0
13229,22.5
13230,15.0
13233,26.0
13234,36.9
13235,31.3
13236,19.5
13240,12.0
13241,30.4
13243,9.2
13247,6.9
13248,-4.7
13249,18.8
13251,13.5
13253,12.3
13256,32.2
13260,26.2
13261,18.3
13262,16.1
13263,41.3
13264,14.9
13266,33.8
13270,42.1
13272,35.3
13273,5.6
13275,36.3
13277,28.8
13281,27.2
13283,17.3
13284,-2.1
13285,8.0
13286,30.3
13288,40.1
13289,18.1
13290,18.6
13293,33.7
13294,13.4
13296,41.6
13297,22.2
13298,6.2
13299,34.1
13300,10.2
13303,12.1
13307,37.1
13308,20.8
13309,18.5
13310,12.6
13311,21.8
13312,19.6
13320,42.9
13322,13.3
13324,10.3
13327,8.3
13334,10.8
13336,17.1
13337,23.1
13338,41.6
13340,32.3
13342,34.0
13344,33.4
13346,-20.1
13347,33.9
13349,14.8
13351,8.9
13352,33.6
13354,6.1
13355,14.8
13358,9.5
13360,23.6
13361,42.1
13367,29.9
13368,19.9
13373,0.5
13374,5.5
13375,28.6
13376,7.3
13377,26.7
13383,8.2
13384,-7.2
13385,36.6
13387,14.1
13390,35.0
13395,13.9
13396,41.6
13399,28.5
13401,17.8
13403,7.8
13406,33.3
13409,18.5
13412,40.8
13413,16.8
13414,6.2
13415,17.5
13416,28.4
13417,27.4
13419,10.4
13421,10.8
13423,36.2
13426,39.7
13427,31.7
13428,20.9
13429,13.6
13430,35.5
13431,41.0
13433,18.5
13435,41.2
13438,13.2
13439,34.7
13441,36.5
13442,25.2
13446,26.1
13447,-22.7
13448,41.4
13451,16.7
13452,18.1
13455,40.6
13457,30.0
13460,21.0
13466,29.7
13468,7.2
13470,19.0
13471,36.0
13472,0.5
13478,20.2
13482,18.9
13483,37.6
13484,-7.2
13486,10.5
13491,11.7
13492,32.4
13493,9.1
13495,14.7
13496,41.6
13497,22.9
13498,34.2
13500,21.8
13504,22.7
13509,18.5
13510,28.0
13511,7.4
13512,32.3
13513,16.1
13514,5.9
13515,15.8
13520,14.8
13521,10.8
13522,39.0
13527,24.8
13529,31.9
13531,29.6
13532,14.5
13534,23.6
13539,38.6
13540,19.2
13541,39.8
13545,8.2
13546,-15.0
13547,6.4
13549,29.8
13550,11.0
13552,42.3
13556,23.4
13559,18.5
13562,9.5
13563,29.4
13569,17.2
13571,20.5
13573,0.5
13574,31.0
13576,9.4
13577,30.6
13578,22.8
13580,9.8
13581,39.3
13584,-9.8
13585,41.5
13588,35.7
13590,39.6
13591,13.1
13593,11.1
13596,39.1
13607,9.2
13608,18.5
13611,21.2
13612,31.0
13613,8.2
13615,7.0
13618,24.1
13619,13.7
13621,8.2
13622,28.5
13626,11.0
13627,27.6
13631,14.4
13632,-2.1
13633,26.6
13639,7.9
13642,17.2
13643,13.3
13644,22.5
13645,-17.5
13646,34.6
13648,9.3
13649,6.0
13651,10.2
13652,24.5
13654,22.1
13655,5.0
13656,29.5
13658,18.2
13659,26.2
13660,27.6
13663,28.5
13664,32.7
13667,19.2
13668,12.5
13669,14.7
13670,17.1
13671,5.6
13672,5.4
13673,42.6
13678,5.2
13682,-2.1
13685,34.5
13686,19.3
13687,35.7
13688,14.3
13689,23.8
13692,28.3
13694,41.6
13697,38.7
13698,33.3
13699,16.8
13701,18.2
13703,7.1
13704,27.6
13708,15.9
13709,24.1
13712,22.2
13714,20.1
13715,14.0
13719,34.6
13720,13.3
13722,15.3
13723,28.0
13727,32.3
13728,12.8
13729,20.5
13732,8.2
13734,31.2
13736,30.8
13737,16.3
13740,7.6
13741,32.0
13744,-15.0
13747,10.6
13748,35.0
13757,31.3
13764,25.6
13765,8.7
13767,7.9
13768,14.3
13770,10.8
13771,25.9
13772,10.0
13773,11.6
13774,6.8
13775,33.5
13777,8.8
13778,14.3
13779,19.3
13783,-4.7
13789,8.8
13790,16.8
13792,10.7
13793,8.7
13794,25.3
13795,41.6
13796,25.8
13801,18.7
13802,14.0
13803,6.2
13807,18.5
13811,25.9
13813,12.5
13814,32.8
13815,38.5
13817,30.5
13818,24.9
13819,13.3
13820,32.5
13821,29.2
13822,13.4
13829,37.0
13830,14.0
13832,13.3
13833,26.5
13834,30.4
13835,8.3
13837,40.7
13839,23.2
13840,14.3
13842,19.5
13843,5.5
13845,-22.7
13846,33.5
13848,27.5
13849,16.6
13852,23.5
13854,23.3
13858,23.6
13859,6.8
13860,5.9
13861,9.9
13865,14.8
13866,32.3
13867,34.7
13869,41.7
13870,39.7
13871,0.5
13874,22.4
13876,21.5
13877,15.2
13878,18.9
13880,35.2
13882,-4.7
13883,35.2
13884,30.5
13885,36.8
13889,17.2
13890,11.9
13894,41.6
13896,22.4
13898,25.1
13899,8.1
13901,9.2
13902,34.7
13905,33.6
13907,18.5
13908,28.6
13911,35.3
13914,16.5
13915,14.9
13917,18.8
13918,28.0
13920,10.8
13923,10.4
13926,20.0
13929,17.9
13930,36.3
13931,27.8
13932,21.0
13933,22.2
13936,23.9
13938,14.0
13939,22.0
13940,31.0
13944,-17.5
13945,9.4
13948,33.7
13951,24.0
13952,20.8
13954,10.4
13955,21.2
13958,21.0
13959,27.2
13963,20.2
13966,10.1
13967,20.3
13968,36.5
13969,40.1
13971,0.5
13972,21.7
13974,13.3
13975,6.0
13978,18.8
13980,12.9
13981,8.7
13982,-7.2
13984,25.7
13986,37.4
13987,23.2
13989,15.9
13992,42.7
13993,11.3
13994,10.3
13995,39.1
13996,31.1
14000,40.2
14005,33.9
14006,16.0
14007,18.5
14009,19.5
14010,7.6
14013,16.3
14016,19.9
14019,8.2
14020,19.5
14021,23.8
14023,12.8
14024,13.3
14025,16.3
14028,30.8
14030,-4.7
14031,7.7
14034,22.4
14041,34.6
14042,31.0
14043,11.6
14044,-17.5
14045,30.5
14049,19.2
14053,16.2
14054,13.6
14055,27.8
14057,28.8
14061,42.6
14062,33.0
14065,12.9
14068,40.1
14069,5.6
14070,15.0
14072,6.0
14074,14.5
14075,16.9
14077,25.5
14078,26.5
14079,27.5
14081,-2.1
14082,39.3
14085,40.2
14090,13.2
14091,25.9
14092,34.6
14093,41.6
14094,13.8
14097,6.1
14098,25.6
14099,23.5
14104,27.9
14105,29.3
14106,18.5
14107,20.3
14108,13.6
14109,37.0
14111,34.1
14115,26.9
14116,11.9
14118,15.9
14119,41.2
14122,34.6
14125,31.9
14130,41.0
14131,3.0
14132,9.3
14133,29.5
14137,23.3
14138,7.2
14142,-12.4
14144,17.5
14147,13.5
14148,7.4
14152,39.5
14155,31.3
14157,6.9
14159,33.2
14162,31.1
14164,27.0
14165,8.1
14166,22.2
14168,10.8
14176,9.9
14177,11.0
14178,23.2
14179,24.7
14181,-4.7
14183,5.8
14185,25.4
14186,22.0
14193,41.6
14195,27.2
14196,42.6
14200,20.2
14201,7.0
14202,36.4
14205,18.5
14208,17.7
14210,22.0
14211,28.3
14212,35.0
14214,32.6
14215,29.9
14218,13.3
14220,36.6
14221,23.1
14223,15.8
14224,28.3
14227,28.7
14229,7.2
14230,10.8
14231,11.1
14235,38.0
14236,9.0
14237,9.7
14238,15.6
14243,-20.1
14244,37.4
14247,35.0
14248,42.5
14251,18.5
14256,33.0
14257,23.6
14258,26.0
14259,25.3
14261,8.9
14266,40.7
14267,41.8
14268,21.4
14269,0.5
14271,23.7
14272,29.0
14273,31.0
14274,41.4
14275,31.8
14276,20.4
14278,14.2
14279,42.7
14280,-4.7
14282,12.6
14287,8.6
14288,27.7
14290,42.3
14291,18.9
14292,41.6
14293,18.4
14295,36.1
14296,33.3
14297,33.6
14298,8.9
14299,27.7
14303,28.1
14305,13.3
14306,21.0
14307,39.7
14308,24.3
14309,8.4
14310,36.9
14312,13.0
14313,37.4
14314,32.0
14315,29.6
14316,38.7
14317,7.0
14318,13.3
14319,25.2
14325,41.0
14328,31.5
14330,18.5
14332,9.3
14333,12.9
14334,36.3
14335,24.0
14336,21.2
14338,23.8
14340,12.2
14342,31.0
14343,-22.7
14345,11.5
14346,19.8
14347,35.5
14348,31.3
14349,21.0
14350,9.6
14351,36.8
14352,7.9
14355,28.3
14356,21.0
14357,25.0
14361,15.2
14363,6.4
14367,37.2
14369,0.5
14370,16.8
14372,27.9
14375,7.1
14376,23.1
14379,11.2
14380,18.6
14381,-7.2
14382,16.2
14383,24.6
14384,17.7
14389,13.5
14391,31.4
14392,39.3
14393,39.1
14394,36.2
14396,13.9
14397,27.7
14399,27.3
14403,33.8
14405,21.0
14407,9.7
14410,23.3
14413,15.6
14415,32.8
14416,27.9
14417,10.8
14419,10.9
14420,39.6
14421,34.5
14422,38.9
14423,9.0
14426,35.7
14427,7.7
14430,23.6
14432,27.8
14434,33.1
14436,17.3
14437,38.5
14440,7.5
14443,-15.0
14450,33.1
14452,42.3
14455,41.0
14456,21.0
14459,14.7
14460,23.8
14461,21.0
14465,11.8
14469,-2.1
14471,40.5
14475,36.1
14480,42.7
14481,-15.0
14484,31.9
14489,20.4
14491,6.4
14492,31.5
14493,20.0
14494,28.8
14495,26.7
14496,14.9
14505,14.8
14506,36.3
14507,32.5
14508,8.2
14512,26.1
14513,17.1
14514,8.6
14517,19.8
14518,34.5
14519,0.5
14520,27.9
14522,5.3
14524,34.3
14526,22.9
14527,20.2
14528,30.1
14530,28.8
14532,17.8
14534,41.4
14535,6.8
14536,27.3
14538,31.4
14542,-7.2
14545,16.6
14549,38.5
14551,27.0
14552,22.7
14554,28.9
14555,26.2
14557,39.8
14559,6.2
14560,42.4
14563,28.2
14567,37.9
14568,5.6
14572,31.7
14574,22.5
14579,-4.7
14580,29.2
14583,38.9
14584,17.5
14585,40.9
14586,40.2
14590,20.9
14592,41.6
14593,24.3
14594,7.5
14595,12.8
14597,41.6
14598,22.9
14603,40.5
14604,18.5
14605,22.2
14607,23.2
14608,10.2
14609,23.2
14610,13.6
14616,13.3
14617,16.2
14623,5.4
14624,40.0
14625,16.6
14626,29.7
14627,29.6
14628,10.8
14634,32.9
14636,40.9
14638,8.6
14639,28.4
14640,38.4
14641,36.9
14642,-20.1
14644,13.7
14648,35.8
14650,20.6
14652,39.7
14655,23.6
14656,12.0
14657,13.9
14659,16.9
14661,39.3
14662,8.6
14665,25.7
14667,3.0
14668,29.7
14670,16.8
14671,15.2
14672,16.3
14673,41.9
14674,38.2
14676,15.3
14677,30.4
14679,-7.2
14682,30.4
14683,11.0
14686,15.6
14688,35.7
14691,41.6
14692,33.6
14696,5.3
14698,27.8
14701,21.7
14702,18.3
14704,18.5
14705,39.0
14707,8.5
14716,10.8
14718,30.4
14719,24.6
14721,30.0
14724,42.2
14729,15.9
14732,20.8
14736,15.4
14738,28.3
14740,26.9
14741,-22.7
14742,8.9
14745,23.8
14748,12.3
14749,25.5
14754,21.0
14755,31.9
14756,39.1
14757,22.8
14759,17.2
14760,36.6
14762,10.1
14765,36.9
14767,42.6
14768,0.5
14769,31.0
14772,28.7
14774,24.3
14775,36.3
14777,19.7
14778,7.9
14779,-7.2
14783,39.3
14784,34.6
14785,6.0
14786,12.6
14788,19.6
14790,28.4
14791,41.6
14792,11.9
14797,27.0
14800,42.6
14803,18.5
14804,6.3
14808,41.4
14809,14.2
14812,19.5
14814,19.5
14816,13.3
14818,27.2
14820,40.6
14821,21.1
14822,11.6
14823,11.4
14826,18.2
14828,21.0
14829,13.8
14831,19.6
14832,26.6
14839,8.5
14841,-17.5
14842,7.5
14843,36.3
14850,34.7
14852,12.3
14853,30.7
14854,36.8
14855,21.0
14858,35.1
14859,34.8
14860,16.6
14861,15.7
14864,29.0
14865,10.7
14866,5.1
14867,0.5
14868,21.1
14870,11.8
14873,33.3
14875,15.3
14877,12.3
14878,-7.2
14879,35.6
14880,30.6
14881,25.5
14884,13.7
14885,14.0
14887,12.9
14889,19.1
14891,41.6
14893,40.7
14894,33.0
14896,19.5
14901,39.3
14902,14.7
14903,6.4
14904,18.5
14909,21.5
14914,35.7
14916,8.2
14918,35.9
14919,11.7
14921,14.5
14925,26.4
14927,-4.7
14930,19.6
14931,28.6
14935,10.1
14938,17.5
14940,-17.5
14948,5.8
14953,26.2
14957,15.2
14958,17.9
14959,36.6
14965,5.6
14966,26.9
14969,18.2
14970,42.0
14972,37.4
14978,0.5
14980,29.1
14982,40.6
14984,35.7
14987,42.6
14989,36.5
14991,28.1
14993,38.4
14994,40.0
14998,37.1
14999,37.9
15000,14.5
15001,5.6
15004,21.2
15007,39.4
15009,38.2
15012,28.8
15013,21.0
15016,17.4
15017,17.3
15018,8.7
15022,37.8
15024,20.4
15025,8.2
15028,6.7
15029,22.4
15030,35.5
15034,24.9
15037,3.0
15039,5.2
15040,34.0
15043,35.3
15044,17.9
15047,10.2
15048,31.3
15049,24.3
15050,22.3
15051,40.5
15054,42.5
15057,33.1
15058,28.2
15060,-7.2
15061,20.3
15063,19.3
15065,41.6
15067,21.3
15069,27.4
15071,28.2
15072,14.8
15073,26.2
15075,5.6
15076,31.6
15081,22.4
15085,5.6
15086,37.4
15087,29.4
15088,38.1
15089,37.9
15090,21.5
15096,-2.1
15097,7.0
15098,37.2
15099,28.6
15101,39.5
15102,8.1
15104,41.6
15107,13.2
15110,41.6
15111,24.9
15113,35.3
15114,41.1
15116,40.4
15121,22.0
15122,18.5
15123,17.8
15125,23.3
15127,18.6
15128,21.4
15129,17.4
15130,29.8
15132,7.9
15133,32.7
15134,13.3
15135,21.1
15136,5.8
15137,8.6
15138,23.7
15139,16.1
15141,26.4
15144,32.5
15146,11.9
15147,8.2
15150,15.8
15153,12.9
15155,41.7
15156,28.2
15158,-15.0
15160,29.3
15164,21.5
15168,24.7
15170,5.7
15171,42.1
15172,28.8
15173,40.2
15174,17.3
15177,39.6
15181,29.5
15182,34.7
15184,10.8
15185,20.5
15189,31.9
15190,35.1
15191,13.7
15197,-4.7
15199,18.0
15201,6.7
15202,36.3
15203,33.5
15207,15.0
15208,11.8
15209,41.6
15211,26.3
15212,7.7
15213,36.6
15215,25.4
15216,11.4
15217,17.6
15218,21.9
15219,16.4
15221,18.5
15224,6.3
15225,9.9
15227,7.1
15230,37.8
15232,37.7
15233,25.5
15234,38.1
15235,13.3
15239,43.0
15241,21.3
15247,15.9
15248,11.6
15250,19.3
15252,36.6
15254,24.5
15259,-22.7
15260,35.0
15261,28.9
15267,33.9
15270,14.5
15271,29.6
15272,21.0
15277,26.8
15279,33.8
15280,20.5
15281,26.3
15285,0.5
15287,7.0
15294,19.6
15296,-7.2
15298,17.3
15301,18.3
15302,5.7
15307,36.9
15308,5.8
15309,41.6
15310,8.0
15311,34.0
15313,21.7
15314,27.0
15317,27.8
15319,8.2
15321,35.6
15322,21.0
15323,29.6
15325,5.1
15327,16.2
15328,40.0
15330,37.7
15333,10.6
15334,10.8
15337,38.0
15338,31.9
15346,21.0
15348,22.5
15350,24.9
15351,33.8
15352,6.9
15353,13.2
15358,-17.5
15360,17.4
15361,10.6
15362,40.9
15363,33.4
15365,13.2
15367,16.6
15369,15.7
15370,28.9
15372,14.8
15373,21.0
15374,24.3
15375,27.7
15376,33.4
15377,32.3
15378,13.8
15379,25.4
15382,30.6
15385,-2.1
15386,10.7
15388,13.4
15391,21.7
15393,21.0
15397,-12.4
15401,23.1
15402,37.0
15404,39.3
15405,22.0
15406,13.4
15409,9.7
15410,22.0
15411,28.8
15413,15.6
15419,18.6
15423,10.8
15425,22.5
15426,21.3
15427,30.7
15428,38.8
15430,19.7
15436,-4.7
15438,40.8
15439,21.9
15440,16.9
15441,6.6
15444,28.3
15447,39.6
15448,39.8
15449,41.6
15450,28.0
15453,35.9
15454,15.1
15455,23.8
15461,18.5
15462,34.4
15471,19.2
15472,15.4
15473,13.3
15474,15.9
15480,14.1
15481,15.8
15483,24.1
15485,21.0
15486,17.7
15487,27.3
15489,37.2
15490,22.0
15491,22.5
15492,14.6
15498,-22.7
15504,36.4
15507,6.0
15508,33.6
15510,14.1
15512,21.0
15514,19.8
15518,21.0
15520,23.1
15522,6.0
15524,0.5
15527,38.1
15531,5.9
15532,37.9
15536,-7.2
15537,21.0
15538,18.5
15540,16.7
15541,21.9
15542,12.6
15544,8.4
15548,41.6
15550,17.0
15551,22.9
15553,12.9
15556,34.5
15558,7.3
15560,18.5
15567,27.4
15568,35.0
15569,29.4
15572,6.8
15573,37.3
15574,8.2
15577,33.1
15579,35.3
15581,19.2
15582,18.6
15583,24.2
15584,14.2
15585,-4.7
15594,16.0
15595,15.0
15597,-17.5
15599,14.3
15600,42.4
15601,35.4
15602,29.9
15603,21.1
15604,14.3
15605,41.2
15606,39.7
15608,37.9
15610,26.2
15613,9.9
15614,20.6
15615,42.4
15619,29.0
15623,5.6
15626,39.8
15627,30.5
15630,5.5
15632,41.4
15633,14.9
15635,-2.1
15636,6.1
15638,43.0
15640,33.0
15641,7.7
15642,33.0
15644,36.0
15646,27.2
15647,41.6
15649,33.6
15650,18.7
15651,21.0
15654,8.0
15657,31.2
15658,27.7
15660,18.5
15663,26.6
15668,33.0
15671,36.7
15672,15.9
15673,42.8
15675,8.3
15680,8.9
15681,38.7
15682,24.1
15683,33.5
15684,0.5
15685,22.0
15686,40.3
15687,20.3
15692,7.9
15693,32.7
15695,-12.4
15696,22.9
15697,21.2
15698,8.5
15699,29.4
15703,29.6
15705,24.4
15708,30.4
15709,15.7
15710,33.9
15711,22.5
15712,27.2
15713,20.2
15715,29.7
15716,34.7
15718,19.6
15719,38.6
15720,31.9
15721,5.6
15722,10.8
15723,19.2
15725,10.1
15726,20.4
15727,42.2
15730,27.3
15731,5.6
15733,29.4
15734,-2.1
15735,7.6
15744,32.3
15746,31.7
15747,41.6
15748,31.3
15749,5.1
15751,11.9
15753,31.8
15754,23.9
15755,39.5
15757,37.5
15759,18.5
15762,17.0
15764,36.9
15766,30.9
15768,28.7
15771,21.0
15772,13.3
15773,39.8
15775,7.5
15779,7.1
15784,10.8
15786,7.6
15787,38.3
15788,25.2
15793,19.3
15794,16.7
15797,-22.7
15803,16.7
15810,23.6
15811,38.0
15812,13.1
15813,27.4
15814,8.4
15816,22.2
15819,33.1
15820,17.9
15821,14.9
15822,3.0
15823,16.4
15824,16.5
15827,9.9
15830,12.1
15832,28.0
15833,15.7
15834,5.6
15835,-4.7
15836,39.1
15837,38.2
15838,11.3
15841,32.4
15843,34.8
15845,23.3
15847,44.2
15848,13.6
15852,18.6
15853,8.1
15856,39.8
15859,18.5
15860,30.9
15865,33.7
15868,20.4
15869,16.8
15870,37.9
15871,23.9
15872,13.3
15875,16.5
15876,12.7
15878,41.8
15881,39.9
15884,18.5
15887,7.9
15889,30.6
15890,5.3
15892,18.5
15893,19.2
15894,15.2
15896,-22.7
15897,40.9
15904,20.9
15906,17.1
15907,36.0
15909,18.3
15910,21.0
15914,41.1
15916,40.6
15920,34.5
15921,18.9
15922,11.4
15923,0.5
15924,9.5
15927,25.9
15928,17.5
15930,38.3
15934,-7.2
15939,35.7
15941,7.2
15944,26.9
15945,16.5
15946,41.6
15949,38.7
15952,35.2
15954,7.9
15956,11.5
15957,42.9
15958,42.2
15959,18.5
15960,17.6
15964,35.7
15967,36.9
15969,42.0
15970,9.2
15971,22.5
15972,10.8
15978,33.8
15984,23.6
15988,11.8
15989,25.4
15993,40.8
15996,-15.0
16001,8.7
16002,13.4
16004,25.2
16007,41.3
16010,21.0
16012,8.5
16013,38.9
16022,-2.1
16023,34.1
16025,32.8
16027,42.7
16028,41.5
16031,7.5
16032,14.8
16033,19.6
16035,-15.0
16040,14.8
16048,31.7
16049,28.8
16054,42.3
16055,11.6
16058,39.8
16061,8.2
16062,8.9
16064,28.1
16066,19.1
16067,22.6
16069,37.0
16072,0.5
16075,42.2
16076,37.2
16078,36.9
16080,32.9
16082,8.9
16083,28.8
16086,7.4
16088,16.9
16090,22.9
16094,12.3
16095,8.4
16096,-7.2
16097,8.3
16098,32.5
16099,8.3
16103,14.5
16104,17.6
16109,26.2
16113,29.4
16114,18.8
16115,37.3
16117,41.2
16118,17.2
16119,6.5
16121,5.6
16123,7.2
16126,16.7
16127,5.4
16130,21.8
16132,8.3
16133,-2.1
16138,32.1
16139,39.0
16140,28.4
16141,38.7
16142,20.5
16145,41.6
16148,28.3
16157,18.5
16158,16.5
16160,34.2
16168,17.2
16169,20.5
16171,15.9
16177,36.9
16179,21.4
16182,33.5
16183,10.8
16184,16.6
16186,42.5
16187,16.5
16188,34.8
16189,33.2
16191,12.0
16193,27.5
16195,-20.1
16196,10.4
16197,40.7
16200,37.6
16201,27.7
16203,18.0
16205,7.1
16206,16.7
16208,23.6
16210,8.1
16212,28.5
16213,32.9
16214,8.9
16215,20.9
16220,9.0
16221,3.0
16226,31.4
16230,19.5
16233,-2.1
16235,29.3
16236,31.2
16237,8.5
16238,7.2
16239,33.6
16241,36.9
16242,31.7
16243,25.0
16244,10.0
16245,41.6
16246,30.2
16248,10.1
16251,33.1
16252,20.4
16256,10.4
16257,36.3
16258,18.5
16262,40.2
16264,10.8
16266,8.2
16269,35.8
16270,10.8
16272,18.5
16273,29.2
16275,11.5
16277,34.7
16278,36.8
16279,26.6
16281,19.5
16282,15.9
16289,10.5
16291,25.1
16293,29.0
16294,-20.1
16295,23.9
16300,35.4
16302,31.9
16303,33.3
16304,5.4
16308,26.6
16309,23.6
16310,10.3
16317,35.4
16321,0.5
16323,29.1
16324,40.6
16325,29.1
16326,23.7
16329,33.9
16331,25.9
16332,-4.7
16334,22.3
16336,31.7
16337,11.0
16340,6.2
16343,41.5
16345,41.6
16346,30.1
16348,39.7
16349,15.2
16350,17.9
16353,23.7
16354,9.9
16355,35.6
16357,21.0
16359,26.1
16360,40.7
16363,10.5
16364,18.3
16369,16.2
16370,10.8
16374,12.1
16376,32.3
16379,6.7
16380,30.7
16381,24.4
16382,21.0
16385,40.2
16387,29.4
16390,31.8
16392,10.6
16394,29.0
16395,-20.1
16396,24.6
16399,5.6
16401,19.4
16405,15.9
16406,6.1
16407,35.1
16408,21.0
16412,36.6
16415,15.0
16416,20.9
16417,18.6
16418,16.4
16419,23.1
16420,0.5
16421,22.1
16422,35.6
16424,31.3
16427,28.1
16430,18.0
16431,32.3
16432,5.9
16433,-7.2
16434,38.1
16438,29.1
16440,41.9
16442,27.2
16443,17.6
16445,41.6
16451,19.9
16452,31.1
16453,12.8
16454,8.6
16455,19.8
16457,21.0
16461,28.8
16463,18.5
16464,35.6
16468,13.4
16470,10.8
16471,26.2
16472,25.2
16473,40.2
16474,21.8
16476,38.4
16477,18.2
16478,31.5
16482,26.2
16485,39.6
16486,28.3
16487,36.5
16490,7.8
16491,19.8
16492,41.4
16494,-12.4
16495,20.8
16496,9.9
16498,40.2
16499,37.0
16503,5.9
16507,8.4
16508,18.5
16509,8.7
16510,32.6
16513,12.4
16514,19.5
16516,40.0
16517,23.3
16520,27.4
16521,-2.1
16522,30.3
16526,22.0
16528,38.5
16531,33.6
16532,28.4
16533,-17.5
16534,13.1
16539,5.6
16541,17.5
16543,33.9
16546,28.8
16547,32.8
16549,37.6
16551,24.8
16559,8.2
16561,35.3
16566,34.1
16567,32.7
16569,26.3
16571,0.5
16572,41.1
16574,26.6
16576,16.7
16577,27.4
16580,33.6
16582,33.9
16591,14.9
16594,-4.7
16595,35.7
16598,32.8
16600,41.4
16601,13.9
16603,21.7
16604,26.3
16606,27.4
16607,26.2
16609,38.5
16610,41.4
16611,20.5
16613,13.2
16614,7.1
16616,26.4
16617,32.7
16619,5.6
16620,9.8
16621,32.7
16625,23.8
16627,35.7
16628,14.7
16629,24.4
16631,-4.7
16632,24.6
16633,36.0
16637,25.1
16638,34.3
16639,36.7
16640,17.6
16642,31.2
16643,10.7
16644,41.6
16645,38.9
16653,19.0
16656,18.5
16658,30.2
16659,30.2
16661,30.2
16664,38.2
16665,11.0
16666,39.4
16668,13.3
16669,32.2
16670,39.2
16673,33.9
16674,9.2
16680,10.8
16681,13.3
16682,14.3
16687,13.0
16690,21.6
16691,24.4
16693,-22.7
16695,18.0
16696,25.3
16697,16.3
16698,40.8
16699,21.1
16702,39.5
16705,29.3
16707,23.6
16708,24.1
16709,28.2
16710,20.2
16711,17.3
16713,26.0
16715,23.2
16719,3.0
16721,15.2
16722,15.7
16725,17.4
16727,26.8
16730,17.7
16731,-4.7
16732,8.0
16743,41.6
16744,18.6
16748,12.6
16752,40.6
16753,17.3
16754,18.1
16755,18.5
16757,34.9
16761,17.5
16762,28.9
16763,40.1
16765,31.6
16769,13.3
16770,23.6
16774,25.4
16775,22.4
16778,15.5
16779,41.7
16780,7.4
16781,18.5
16782,29.2
16784,41.9
16793,-22.7
16794,19.7
16795,38.7
16799,40.3
16803,21.3
16805,17.3
16806,21.0
16809,9.6
16810,33.4
16812,9.5
16815,28.4
16817,23.7
16819,0.5
16821,14.8
16824,13.5
16828,28.3
16829,18.5
16831,-7.2
16832,17.1
16835,34.2
16838,34.6
16843,41.6
16844,21.6
16845,38.7
16848,28.2
16849,21.7
16850,27.8
16851,14.0
16852,32.5
16853,39.7
16854,6.9
16855,41.3
16856,18.5
16860,18.3
16864,24.2
16865,12.0
16868,10.8
16872,36.7
16873,20.0
16874,12.3
16875,6.4
16876,33.8
16878,17.4
16879,23.1
16880,23.6
16881,29.3
16882,11.6
16885,15.7
16886,9.8
16892,-15.0
16898,15.7
16899,25.6
16902,33.3
16907,21.0
16909,16.6
16910,30.2
16911,11.4
16913,19.5
16917,26.0
16919,-2.1
16920,26.6
16922,24.8
16931,-15.0
16932,14.7
16933,29.9
16934,6.9
16936,8.1
16937,29.1
16939,24.2
16942,6.3
16943,5.3
16945,28.8
16946,12.8
16947,39.6
16949,26.0
16950,7.7
16953,37.5
16955,38.1
16956,21.7
16957,10.8
16958,14.2
16962,35.2
16963,25.0
16964,20.2
16966,33.4
16968,9.0
16970,-4.7
16971,18.1
16972,14.9
16975,20.8
16979,5.6
16983,41.6
16986,14.3
16988,10.9
16989,19.9
16990,28.4
16991,21.6
16992,37.5
16995,21.0
16996,40.4
17000,36.3
17003,20.3
17005,31.6
17007,10.8
17009,23.8
17013,6.8
17014,17.6
17015,12.8
17017,40.2
17019,21.0
17022,37.4
17027,16.4
17033,-17.5
17035,26.8
17037,9.1
17041,31.3
17044,32.0
17045,36.2
17046,21.0
17048,18.3
17050,21.9
17052,28.8
17053,30.9
17054,35.5
17058,0.5
17066,18.8
17069,6.6
17070,-7.2
17072,42.3
17074,38.4
17075,41.1
17076,41.9
17078,32.5
17082,41.6
17083,37.3
17084,29.7
17088,29.9
17089,26.2
17090,37.7
17093,30.6
17094,18.5
17095,22.3
17097,38.2
17098,25.9
17104,8.4
17105,11.0
17107,10.8
17110,11.9
17113,14.9
17115,40.8
17116,19.1
17117,23.2
17119,24.5
17120,26.2
17121,16.0
17122,20.0
17123,21.9
17124,28.2
17127,36.6
17131,36.6
17132,-9.8
17133,36.5
17134,8.1
17135,34.7
17136,26.4
17137,26.6
17141,8.8
17144,26.2
17148,24.2
17151,22.3
17154,19.2
17157,8.2
17158,7.6
17162,26.8
17163,31.1
17166,16.4
17167,35.2
17168,28.0
17169,0.5
17170,11.3
17171,12.8
17172,8.8
17173,39.9
17174,28.6
17176,11.8
17177,33.9
17179,33.9
17180,36.5
17182,24.7
17183,29.5
17185,30.2
17187,23.1
17189,21.7
17192,3.0
17193,21.5
17194,19.4
17198,17.1
17199,39.1
17201,23.3
17204,28.8
17207,18.7
17211,16.5
17216,8.2
17219,28.3
17223,29.6
17224,31.9
17226,29.3
17227,3.0
17231,16.6
17232,42.4
17237,21.4
17240,28.8
17243,22.9
17244,23.7
17245,17.8
17246,20.6
17247,26.4
17248,41.1
17249,32.6
17252,-7.2
17255,36.5
17256,15.1
17258,28.3
17260,39.1
17261,23.5
17264,26.2
17265,41.0
17269,31.4
17270,16.3
17272,9.3
17273,13.0
17276,5.6
17277,27.6
17281,22.7
17282,42.8
17283,30.2
17285,9.2
17287,41.1
17288,-2.1
17291,29.5
17296,22.6
17298,37.6
17299,34.1
17301,41.6
17302,28.4
17303,15.0
17304,30.2
17305,36.1
17307,30.1
17308,31.4
17313,15.9
17314,23.4
17317,11.6
17318,40.8
17319,22.8
17321,24.0
17323,20.2
17324,8.9
17326,13.3
17328,18.0
17332,29.6
17338,5.6
17345,32.8
17346,23.5
17348,8.6
17349,-15.0
17350,25.3
17352,38.3
17356,19.2
17358,13.1
17359,30.3
17360,10.8
17363,31.3
17366,37.7
17368,25.4
17371,41.7
17376,10.8
17378,18.3
17380,5.7
17382,34.5
17384,33.5
17386,34.9
17388,-4.7
17389,36.8
17390,23.5
17391,27.7
17394,36.6
17396,18.8
17397,24.1
17399,29.8
17400,41.6
17401,20.3
17405,10.9
17406,39.1
17408,25.2
17410,39.5
17412,28.9
17413,18.5
17415,9.5
17416,12.3
17417,11.4
17419,13.1
17420,33.0
17421,34.9
17424,29.2
17425,13.3
17428,21.9
17432,16.4
17435,22.7
17437,14.6
17438,13.3
17439,35.7
17440,42.9
17441,21.9
17442,32.2
17445,14.7
17446,42.2
17449,30.4
17451,-22.7
17452,23.6
17455,35.8
17457,36.2
17460,14.3
17464,23.6
17466,16.1
17467,26.1
17474,32.1
17475,26.7
17476,3.0
17477,42.8
17480,24.7
17481,13.2
17483,40.7
17484,19.2
17487,-2.1
17488,34.1
17489,6.4
17493,22.5
17494,12.3
17496,36.3
17500,8.8
17501,41.6
17502,8.0
17504,18.2
17505,30.8
17508,30.0
17511,6.5
17513,18.5
17514,9.0
17520,33.5
17521,40.7
17522,22.5
17523,35.0
17525,13.3
17527,15.2
17528,6.3
17532,25.6
17534,31.6
17536,11.8
17538,21.0
17541,25.1
17542,16.9
17543,8.7
17545,39.3
17550,-17.5
17551,10.9
17556,33.5
17557,18.9
17558,35.8
17559,14.0
17563,25.9
17564,23.6
17565,35.1
17567,27.2
17568,21.9
17569,30.7
17570,18.4
17572,12.5
17573,21.3
17576,3.0
17578,43.0
17581,19.0
17584,30.6
17586,18.5
17588,-7.2
17589,25.0
17594,20.5
17595,23.6
17597,22.3
17598,10.0
17600,41.6
17601,25.5
17603,15.3
17604,8.2
17605,13.1
17609,35.4
17612,21.0
17613,36.2
17619,33.6
17620,28.3
17621,7.8
17622,12.2
17623,27.9
17625,10.8
17627,39.6
17628,16.8
17629,23.7
17630,16.8
17633,28.4
17634,21.4
17638,28.8
17641,37.3
17642,40.1
17643,16.9
17644,32.1
17646,32.6
17649,20.7
17650,-9.8
17652,34.2
17656,38.6
17657,41.1
17660,15.2
17661,41.6
17662,26.2
17663,12.4
17664,34.2
17665,42.0
17666,30.4
17671,30.2
17673,39.7
17675,8.2
17677,30.6
17681,13.7
17683,18.8
17684,28.9
17685,37.1
17686,0.5
17691,26.3
17693,10.8
17695,36.3
17698,36.5
17701,24.5
17705,42.0
17708,18.0
17711,5.6
17713,41.0
17716,30.4
17718,14.0
17720,32.7
17722,31.3
17723,35.8
17725,40.9
17730,31.9
17731,35.4
17732,10.4
17733,24.3
17734,10.8
17735,34.0
17738,19.8
17740,40.7
17742,8.9
17745,35.8
17746,-4.7
17749,30.5
17750,41.4
17753,35.3
17756,11.3
17758,15.0
17759,44.2
17760,30.0
17762,17.2
17763,11.0
17764,19.3
17765,40.1
17772,18.5
17774,27.3
17776,35.0
17779,25.8
17780,35.6
17781,10.6
17784,10.8
17785,17.7
17786,28.5
17790,16.6
17795,42.1
17796,33.8
17797,21.0
17800,22.2
17803,15.0
17805,28.9
17806,19.3
17807,19.1
17808,13.2
17809,-17.5
17810,19.2
17811,36.1
17812,15.6
17814,40.1
17815,9.2
17816,8.7
17821,34.4
17822,23.6
17828,25.2
17830,37.3
17831,39.4
17832,18.0
17834,13.1
17835,40.0
17836,0.5
17837,12.1
17838,41.7
17840,31.1
17841,10.5
17842,12.8
17843,36.4
17844,29.5
17845,8.8
17846,27.5
17847,-4.7
17848,21.9
17849,41.1
17850,21.3
17856,16.4
17857,8.8
17858,34.6
17859,41.6
17860,15.6
17861,23.9
17863,8.1
17864,19.5
17865,10.1
17866,6.1
17869,7.8
17870,30.2
17871,21.0
17873,14.3
17874,14.2
17877,15.1
17883,7.3
17884,10.8
17891,8.7
17896,12.0
17897,26.2
17898,11.4
17901,12.9
17902,19.8
17906,12.4
17909,-9.8
17911,24.3
17912,38.4
17913,20.0
17916,16.1
17917,39.5
17918,6.8
17920,26.8
17922,28.8
17923,42.7
17924,30.1
17927,23.4
17928,9.1
17929,25.7
17930,34.5
17931,19.3
17932,33.1
17933,19.2
17934,8.2
17935,23.4
17936,29.9
17937,31.2
17940,7.5
17941,20.8
17943,41.4
17944,24.0
17945,0.5
17949,6.6
17950,25.7
17952,37.1
17954,20.0
17956,33.9
17957,6.9
17961,16.4
17962,24.0
17963,35.9
17968,13.5
17970,5.6
17971,13.6
17973,36.4
17974,11.1
17977,37.1
17979,29.9
17980,35.2
17981,31.3
17982,14.8
17984,21.3
17989,16.3
17991,27.4
17993,10.8
17998,8.2
18002,6.4
18003,32.3
18006,-2.1
18013,31.0
18014,13.8
18017,30.9
18018,44.2
18020,19.7
18021,39.6
18022,35.3
18023,26.6
18024,41.7
18025,32.3
18029,33.5
18031,21.0
18032,29.5
18033,13.7
18034,10.0
18035,35.9
18036,42.9
18043,13.3
18046,31.8
18047,27.7
18048,30.9
18051,9.7
18053,7.6
18055,37.8
18056,21.0
18059,26.2
18063,8.8
18066,20.1
18068,-17.5
18070,25.7
18071,27.0
18072,22.7
18073,5.4
18076,15.5
18077,9.5
18078,17.6
18080,14.4
18081,23.6
18082,27.7
18084,29.2
18085,20.1
18088,10.3
18089,38.2
18092,41.2
18094,0.5
18096,20.3
18099,5.1
18100,11.6
18104,21.1
18105,32.9
18106,-4.7
18107,33.8
18111,25.9
18112,24.4
18114,18.9
18115,15.5
18117,5.4
18118,44.2
18122,37.9
18125,40.3
18127,13.8
18129,34.4
18130,21.0
18132,19.0
18135,13.8
18136,24.1
18139,16.3
18140,30.9
18142,28.6
18143,10.8
18144,8.1
18147,20.5
18149,22.0
18151,38.6
18152,17.4
18155,26.2
18156,8.2
18162,16.8
18163,39.9
18168,-9.8
18171,19.3
18172,13.3
18175,31.2
18178,18.1
18179,6.0
18181,31.3
18185,11.2
18186,8.1
18188,6.8
18193,8.2
18194,35.7
18195,8.4
18201,39.6
18202,14.3
18203,8.3
18204,-2.1
18205,17.6
18212,24.5
18216,41.6
18218,29.1
18221,31.8
18223,26.5
18225,5.5
18226,13.4
18229,35.7
18230,18.5
18232,37.8
18235,22.2
18238,23.7
18239,23.7
18240,37.6
18241,31.6
18242,15.9
18245,12.3
18247,18.1
18249,24.0
18252,39.5
18254,0.5
18255,38.9
18256,16.5
18257,9.9
18258,39.6
18266,-9.8
18271,31.5
18273,5.2
18277,8.5
18278,39.1
18281,19.9
18283,25.6
18285,13.8
18286,29.1
18288,26.1
18290,18.5
18291,17.2
18292,14.1
18299,19.6
18301,14.8
18302,33.7
18304,5.6
18306,22.2
18308,36.6
18309,22.4
18311,37.9
18314,21.6
18315,21.0
18316,7.3
18317,19.7
18323,13.5
18327,-20.1
18328,17.3
18329,41.3
18330,37.0
18331,40.4
18339,35.4
18340,23.6
18341,22.3
18343,29.1
18346,37.0
18347,37.0
18353,0.5
18355,29.3
18357,23.0
18358,14.0
18360,13.7
18361,11.7
18363,27.0
18364,21.0
18365,-4.7
18367,36.5
18377,44.2
18379,32.6
18380,17.7
18382,33.7
18390,21.0
18393,24.0
18394,42.2
18395,42.8
18397,17.9
18402,10.8
18404,34.6
18406,16.5
18409,15.7
18414,26.2
18416,25.3
18417,6.6
18422,16.5
18423,38.2
18426,-9.8
18430,21.7
18431,35.5
18439,37.1
18440,28.8
18446,25.6
18448,42.7
18452,8.2
18453,19.7
18454,37.5
18455,37.1
18457,11.2
18458,7.0
18463,0.5
18465,27.6
18475,36.5
18478,37.3
18479,38.9
18482,18.7
18483,27.0
18484,38.8
18487,3.0
18489,35.5
18491,20.7
18492,9.5
18493,9.1
18496,23.4
18498,42.7
18499,33.9
18500,23.0
18501,16.7
18505,22.1
18508,16.0
18510,33.2
18511,10.8
18512,20.9
18518,22.5
18520,24.4
18521,35.0
18523,10.8
18524,-4.7
18525,19.7
18530,26.9
18532,16.2
18533,17.8
18536,41.6
18543,40.8
18548,21.0
18551,30.9
18552,33.8
18554,27.0
18557,28.1
18561,15.9
18564,14.8
18566,31.0
18574,18.5
18576,25.1
18578,18.3
18580,20.8
18582,37.0
18586,-22.7
18590,19.4
18592,27.4
18594,27.7
18596,40.0
18598,41.2
18599,23.6
18601,32.3
18602,20.5
18606,13.3
18608,10.0
18611,20.6
18612,3.0
18615,25.8
18617,6.3
18620,34.2
18621,21.8
18622,21.7
18623,-4.7
18624,22.3
18625,27.7
18626,22.8
18630,33.8
18631,12.8
18633,26.5
18636,41.6
18638,36.4
18641,10.5
18646,13.5
18647,22.8
18649,21.0
18650,12.0
18654,33.3
18658,33.8
18659,21.9
18661,13.3
18664,30.5
18667,8.2
18668,41.0
18671,33.9
18673,23.6
18675,42.6
18676,9.7
18677,26.0
18679,20.9
18681,12.1
18683,35.1
18685,-12.4
18688,20.5
18691,41.7
18695,29.8
18697,11.4
18698,12.7
18699,13.8
18700,23.6
18701,31.0
18702,34.5
18703,7.0
18705,10.4
18707,28.4
18710,40.3
18712,0.5
18716,14.6
18717,19.4
18718,34.9
18720,35.9
18721,38.8
18722,36.7
18723,-7.2
18726,41.2
18728,19.4
18729,42.4
18732,14.8
18733,13.6
18734,39.9
18736,41.6
18737,20.2
18739,18.1
18740,10.0
18742,18.0
18744,25.4
18748,21.0
18754,19.9
18758,34.6
18760,10.8
18761,27.8
18762,8.4
18763,24.2
18765,14.2
18766,32.2
18769,6.8
18773,34.8
18774,28.8
18775,37.7
18776,15.1
18777,25.2
18782,36.5
18786,-4.7
18787,17.8
18790,25.2
18798,26.2
18800,34.6
18802,17.9
18803,9.1
18805,41.6
18808,29.0
18810,5.6
18815,34.1
18818,24.8
18821,5.4
18822,-2.1
18823,11.3
18824,18.3
18826,16.8
18828,10.4
18829,35.5
18834,17.3
18835,41.6
18838,42.0
18839,20.6
18841,42.7
18843,41.9
18845,18.9
18846,35.4
18847,21.0
18848,23.2
18849,37.7
18851,41.1
18852,25.9
18855,29.2
18856,22.0
18857,20.1
18859,30.8
18860,15.9
18861,6.6
18862,32.4
18865,41.1
18866,11.4
18867,14.5
18869,7.9
18872,8.2
18874,23.3
18877,39.3
18878,8.5
18880,41.8
18882,39.3
18883,-12.4
18884,26.3
18886,41.6
18888,40.1
18889,41.2
18890,34.5
18891,30.1
18897,33.9
18899,25.5
18900,22.9
18901,24.9
18910,13.3
18911,23.4
18913,39.9
18915,24.7
18917,12.7
18919,35.3
18920,7.9
18922,-2.1
18925,35.5
18926,35.6
18931,26.6
18934,44.2
18936,35.3
18940,11.6
18941,36.1
18942,23.0
18945,30.3
18946,19.9
18947,21.0
18950,16.4
18952,21.2
18953,13.9
18956,33.9
18957,25.6
18958,24.2
18959,13.3
18960,22.9
18961,5.7
18965,8.0
18966,6.6
18968,25.0
18969,16.9
18971,31.0
18972,15.9
18975,10.7
18978,5.8
18979,30.9
18980,32.8
18981,29.9
18982,5.1
18984,-20.1
18985,32.5
18986,23.6
18991,16.3
18995,41.0
18997,7.5
18998,23.6
19003,15.5
19004,23.9
19005,10.2
19007,37.9
19008,7.6
19010,0.5
19015,38.0
19016,15.2
19018,20.8
19021,-4.7
19023,38.2
19024,17.1
19026,33.1
19030,34.6
19032,18.5
19033,20.4
19035,44.2
19036,30.9
19037,22.0
19040,15.5
19041,36.4
19044,13.7
19047,21.0
19048,32.4
19049,7.1
19050,25.3
19053,34.1
19057,16.1
19058,25.6
19059,13.3
19060,40.7
19061,12.2
19062,5.5
19063,41.8
19067,24.3
19069,23.7
19071,39.3
19072,21.0
19074,31.2
19075,13.2
19076,25.3
19078,29.5
19080,21.2
19084,-17.5
19085,35.2
19087,37.8
19088,17.8
19089,42.2
19093,10.8
19094,10.1
19098,23.6
19103,23.4
19106,15.2
19110,0.5
19111,30.2
19113,18.0
19117,31.7
19119,28.6
19120,22.5
19122,-4.7
19123,8.6
19126,6.7
19127,9.1
19129,21.4
19130,28.2
19132,37.2
19133,23.4
19134,44.2
19137,10.0
19138,28.5
19139,18.3
19141,26.7
19144,6.8
19145,37.2
19146,21.0
19150,10.9
19151,32.5
19152,18.4
19154,14.1
19155,31.8
19158,41.8
19159,10.8
19162,22.1
19163,5.1
19166,15.2
19169,29.6
19170,12.5
19171,23.1
19172,26.2
19173,17.9
19174,11.1
19178,39.6
19179,18.1
19180,41.7
19181,29.0
19184,-9.8
19185,19.1
19188,17.3
19190,9.7
19193,21.3
19194,13.0
19196,31.3
19199,28.0
19201,21.9
19203,15.7
19204,11.3
19206,5.7
19209,8.2
19210,34.9
19212,17.7
19213,40.6
19215,16.5
19220,0.5
19221,37.7
19228,42.8
19232,36.5
19233,41.6
19237,39.8
19238,16.4
19239,35.8
19240,36.4
19241,27.1
19242,11.0
19245,5.6
19246,10.0
19247,27.8
19250,24.7
19252,25.7
19253,31.3
19254,11.8
19255,29.8
19256,31.3
19258,41.2
19259,41.8
19262,39.8
19263,32.6
19265,14.0
19268,10.8
19269,40.1
19271,21.5
19272,35.0
19274,23.2
19276,38.5
19279,14.8
19280,-4.7
19283,12.3
19285,16.6
19290,28.9
19292,18.0
19293,44.2
19295,16.6
19297,39.1
19298,24.7
19300,11.3
19301,42.0
19302,19.3
19306,18.5
19307,23.1
19310,17.8
19312,20.4
19314,32.0
19316,16.7
19317,39.0
19318,13.3
19319,37.9
19323,29.6
19325,36.7
19328,28.3
19331,21.0
19333,26.7
19335,34.0
19338,13.6
19340,40.3
19343,-20.1
19344,29.6
19345,29.3
19349,9.8
19350,22.9
19353,37.8
19354,41.5
19355,28.8
19356,23.6
19357,32.4
19359,26.6
19360,5.4
19364,7.5
19365,31.6
19366,23.4
19368,23.2
19369,3.0
19370,9.8
19373,38.4
19380,20.4
19381,-4.7
19382,31.4
19384,41.8
19389,36.7
19391,9.8
19393,41.6
19396,14.9
19397,10.8
19403,6.3
19405,23.6
19408,20.7
19413,27.8
19417,7.0
19418,10.8
19422,33.9
19424,32.3
19425,15.2
19427,36.5
19431,26.2
19433,42.0
19435,39.7
19437,30.8
19438,10.6
19439,14.2
19440,40.9
19443,-9.8
19444,9.3
19449,22.5
19450,36.1
19451,20.0
19453,39.6
19456,26.2
19458,14.8
19464,41.5
19465,17.5
19466,26.7
19468,8.2
19469,34.9
19475,38.4
19479,0.5
19480,29.1
19483,24.8
19489,9.8
19490,36.5
19491,28.2
19493,13.5
19496,42.2
19498,28.2
19499,42.4
19500,15.4
19501,35.4
19504,5.6
19510,11.2
19512,26.9
19515,33.9
19517,29.2
19519,36.7
19520,41.6
19526,29.6
19527,13.3
19528,17.3
19530,20.9
19532,20.8
19535,31.4
19539,-4.7
19541,34.9
19545,35.3
19547,8.1
19549,18.4
19550,37.8
19551,5.8
19552,44.2
19554,11.4
19557,21.4
19559,39.7
19560,33.2
19562,22.7
19565,21.0
19570,34.6
19572,20.3
19574,5.4
19575,32.3
19576,10.4
19577,13.3
19584,26.4
19586,26.8
19588,31.7
19589,29.2
19590,18.5
19591,21.4
19592,37.0
19594,20.5
19596,37.9
19597,29.5
19600,16.4
19602,-20.1
19605,22.2
19606,23.6
19607,37.0
19609,31.8
19611,17.1
19613,30.0
19614,7.0
19615,23.6
19617,40.0
19619,11.7
19620,14.4
19622,20.2
19625,23.7
19627,10.5
19628,31.8
19629,3.0
19630,7.3
19631,21.4
19634,41.1
19635,35.8
19637,15.2
19638,26.7
19639,28.6
19640,-4.7
19643,16.6
19644,13.8
19647,26.8
19648,27.3
19649,15.5
19652,44.2
19656,37.4
19658,33.1
19660,30.5
19662,37.9
19664,21.0
19665,35.1
19668,31.2
19669,11.6
19673,22.8
19675,31.4
19677,13.3
19678,17.7
19679,12.5
19680,36.4
19681,36.4
19684,8.7
19685,13.4
19686,5.7
19688,23.3
19689,23.6
19694,15.5
19695,14.4
19696,39.1
19697,30.8
19698,6.9
19700,42.5
19701,21.1
19702,-12.4
19706,8.9
19709,11.8
19710,16.1
19713,23.1
19714,14.6
19715,29.1
19716,23.6
19718,25.5
19719,12.3
19721,36.1
19722,11.0
19724,14.2
19725,18.2
19727,17.3
19728,3.0
19730,7.8
19732,6.8
19735,14.4
19737,10.0
19738,8.6
19739,-7.2
19740,6.1
19743,31.9
19744,18.9
19745,18.5
19746,25.3
19747,23.9
19748,35.6
19749,41.3
19750,15.1
19751,44.2
19754,42.9
19756,7.0
19757,10.8
19759,39.0
19760,36.1
19762,30.7
19765,21.0
19771,41.0
19775,19.9
19777,10.8
19779,7.7
19780,27.6
19783,10.9
19784,35.9
19785,37.5
19789,28.8
19791,10.0
19793,13.8
19794,35.4
19795,6.4
19796,23.5
19798,24.6
19800,27.3
19802,-4.7
19803,37.1
19804,36.2
19806,32.8
19807,38.7
19810,39.3
19813,18.3
19814,28.8
19816,33.2
19817,32.7
19818,16.8
19820,41.5
19822,40.4
19823,42.0
19824,28.4
19826,38.2
19827,8.2
19829,9.2
19833,31.3
19834,37.6
19836,16.9
19837,23.9
19838,0.5
19842,9.6
19846,40.4
19848,21.4
19849,13.8
19850,39.1
19851,41.4
19853,29.0
19857,10.0
19862,10.8
19865,15.6
19866,14.3
19869,36.9
19871,21.4
19872,33.3
19874,23.6
19875,10.1
19877,37.4
19879,30.5
19880,38.2
19881,30.0
19882,38.9
19884,32.2
19886,14.0
19887,3.0
19888,10.0
19890,38.2
19893,5.0
19899,-4.7
19907,21.6
19908,7.8
19911,44.2
19912,6.6
19914,10.8
19915,16.9
19919,26.4
19920,19.6
19921,35.7
19922,30.4
19923,21.0
19924,21.0
19926,21.9
19928,38.3
19929,16.6
19931,31.1
19934,31.3
19935,21.1
19936,13.3
19937,39.7
19939,24.2
19940,33.3
19942,27.5
19944,9.2
19946,8.0
19947,15.8
19948,23.6
19949,33.7
19952,32.8
19953,37.3
19955,32.8
19957,27.8
19960,23.5
19961,-12.4
19963,24.5
19965,24.0
19966,8.7
19967,27.6
19968,6.5
19969,35.4
19970,39.0
19971,29.9
19972,19.7
19973,14.2
19975,23.6
19976,24.9
19980,20.5
19986,24.3
19987,0.5
19991,31.9
19993,32.9
19994,8.4
19995,36.1
19996,18.4
19998,-7.2
19999,21.0
20000,27.6
20002,42.7
20004,28.9
20008,30.1
20009,19.5
20010,42.7
20011,41.6
20012,33.8
20014,25.4
20015,11.1
20019,23.2
20021,24.9
20023,21.0
20024,5.5
20026,41.1
20032,32.2
20033,11.0
20034,5.1
20035,29.3
20036,10.8
20040,26.1
20041,30.6
20044,40.9
20045,16.0
20046,10.9
20048,28.8
20049,12.3
20051,13.0
20053,21.0
20055,5.7
20057,24.6
20058,32.6
20060,32.1
20061,-4.7
20063,6.1
20071,25.3
20072,6.9
20073,28.8
20078,20.2
20081,21.9
20083,38.6
20084,33.9
20085,8.2
20087,27.2
20088,42.6
20091,19.1
20092,29.4
20094,18.2
20096,15.8
20097,25.8
20098,0.5
20099,20.6
20100,38.9
20103,14.9
20106,23.3
20109,36.5
20111,26.4
20112,40.9
20113,19.4
20116,24.6
20117,20.9
20118,19.2
20120,38.0
20121,8.2
20122,17.8
20123,23.7
20127,8.8
20131,21.1
20132,31.3
20133,18.5
20134,6.7
20140,30.4
20142,35.2
20144,36.2
20145,10.8
20151,12.9
20154,16.5
20157,-4.7
20161,40.2
20165,8.4
20167,6.9
20169,28.8
20170,44.2
20173,21.7
20174,27.4
20177,10.6
20180,32.4
20181,10.1
20183,21.0
20185,25.1
20189,41.5
20190,21.3
20195,13.3
20196,33.8
20199,13.1
20200,34.3
20201,31.7
20202,23.3
20204,14.2
20205,30.7
20207,23.6
20209,8.8
20215,23.8
20219,-12.4
20220,26.2
20224,9.1
20227,34.7
20229,36.9
20230,9.1
20231,15.8
20234,23.6
20235,23.3
20236,10.8
20237,37.4
20238,10.5
20242,30.3
20244,10.3
20246,0.5
20249,19.2
20250,36.1
20253,17.8
20255,5.9
20257,-4.7
20259,7.2
20262,18.0
20264,27.4
20266,6.2
20267,42.8
20270,44.2
20271,32.4
20273,30.3
20274,27.3
20275,25.9
20276,12.9
20279,37.2
20280,20.3
20281,22.4
20282,21.0
20284,24.8
20285,23.2
20287,16.8
20288,8.7
20290,13.2
20291,12.7
20293,35.2
20295,13.3
20296,15.7
20297,25.0
20301,34.4
20303,7.3
20304,6.1
20306,8.0
20307,28.8
20308,13.5
20309,11.0
20312,16.7
20315,40.6
20317,42.5
20318,23.7
20319,42.0
20320,-7.2
20322,15.6
20326,21.6
20327,26.6
20329,41.5
20330,20.7
20331,42.6
20332,28.8
20334,20.7
20337,19.7
20339,24.5
20340,23.9
20341,12.4
20342,8.8
20343,28.0
20344,8.2
20346,19.3
20350,10.5
20352,10.9
20353,34.6
20356,0.5
20360,29.0
20362,7.1
20365,11.3
20366,14.5
20368,36.5
20369,9.9
20371,39.1
20372,15.9
20374,19.1
20375,33.3
20378,22.2
20380,8.2
20383,37.2
20385,41.2
20386,12.0
20388,8.0
20389,19.0
20390,26.4
20391,31.3
20393,6.7
20394,15.0
20397,40.1
20399,37.3
20402,11.3
20404,10.8
20405,37.8
20406,38.5
20407,5.5
20408,7.6
20409,20.3
20413,6.7
20414,25.6
20415,9.4
20416,-2.1
20417,11.8
20423,27.0
20424,23.5
20425,26.0
20427,34.3
20428,23.5
20429,44.2
20431,28.3
20432,27.2
20433,19.5
20434,12.4
20435,8.2
20439,10.3
20440,19.9
20441,17.3
20442,21.0
20445,26.0
20447,35.9
20448,37.6
20452,16.5
20454,13.3
20455,10.9
20457,10.5
20459,35.4
20462,14.9
20463,26.1
20465,14.5
20466,23.6
20471,25.7
20472,19.9
20476,32.5
20478,-17.5
20482,14.3
20483,22.5
20484,22.6
20486,16.4
20489,6.6
20490,40.8
20493,21.0
20495,36.8
20496,38.1
20501,39.7
20505,3.0
20508,6.2
20509,10.8
20515,30.8
20516,-7.2
20521,29.0
20525,35.9
20526,40.0
20529,44.2
20532,34.9
20533,28.0
20534,14.4
20535,26.8
20536,5.2
20538,8.2
20541,21.0
20542,15.0
20544,40.4
20545,34.9
20546,38.2
20548,26.6
20550,33.3
20551,36.6
20552,36.0
20553,10.8
20555,35.6
20556,28.4
20559,32.9
20560,37.2
20561,19.4
20562,30.0
20563,27.8
20564,38.8
20566,32.6
20567,28.8
20569,20.5
20573,26.0
20575,34.5
20577,16.0
20578,41.8
20579,-7.2
20585,13.4
20586,8.0
20587,8.5
20589,33.7
20591,28.8
20592,24.6
20593,9.2
20594,37.6
20598,37.5
20599,29.1
20602,16.9
20603,5.6
20605,41.1
20612,18.0
20615,0.5
20617,8.3
20618,31.7
20620,10.9
20621,29.2
20624,21.9
20627,36.5
20629,27.3
20630,5.1
20632,16.8
20633,6.5
20634,18.7
20637,5.1
20639,5.6
20641,33.3
20642,35.1
20643,35.7
20645,39.3
20646,22.2
20648,16.2
20651,31.3
20652,36.1
20654,22.4
20659,13.1
20661,5.8
20662,9.0
20663,13.3
20664,35.8
20668,18.4
20670,39.6
20671,15.3
20673,23.0
20674,41.0
20675,-4.7
20677,10.8
20678,17.5
20686,42.1
20687,44.2
20688,27.8
20689,35.0
20690,22.3
20691,15.2
20692,13.5
20693,37.6
20698,40.6
20699,15.1
20700,28.5
20701,21.0
20702,27.1
20704,40.0
20711,25.0
20713,13.3
20714,5.1
20716,40.8
20720,14.4
20722,9.0
20723,13.7
20725,21.0
20726,33.4
20727,43.0
20729,16.0
20730,12.1
20733,28.9
20734,41.6
20735,7.7
20737,36.7
20738,-20.1
20739,5.6
20740,11.4
20741,33.8
20743,22.1
20747,13.9
20748,7.5
20751,23.6
20752,29.5
20757,6.7
20760,23.6
20761,41.0
20762,14.2
20764,0.5
20765,31.0
20767,6.4
20768,6.0
20770,25.3
20771,20.4
20774,17.6
20775,-4.7
20776,20.5
20777,8.6
20779,17.2
20780,20.1
20783,19.8
20788,41.6
20789,16.0
20791,7.3
20795,21.8
20799,41.1
20800,21.0
20801,20.2
20802,27.8
20807,38.3
20812,13.3
20813,19.4
20815,29.2
20818,27.2
20819,24.7
20821,15.3
20823,14.6
20826,26.2
20827,7.6
20828,5.5
20829,29.7
20830,20.4
20833,9.0
20834,42.6
20836,40.0
20838,-15.0
20841,22.3
20842,22.8
20843,33.6
20844,21.9
20845,41.1
20846,34.1
20847,13.4
20848,23.3
20851,21.0
20853,26.8
20854,16.8
20856,12.5
20857,12.7
20858,42.6
20859,6.4
20861,25.1
20862,9.2
20863,38.6
20864,0.5
20865,21.8
20870,26.8
20873,33.8
20874,36.6
20875,-4.7
20876,42.7
20877,15.6
20878,5.9
20880,40.0
20881,15.2
20883,16.2
20884,40.9
20887,39.1
20888,35.8
20889,17.7
20890,27.5
20891,22.0
20893,13.6
20894,13.9
20899,30.2
20900,21.0
20902,16.5
20905,26.5
20906,20.5
20911,31.7
20913,8.2
20915,18.0
20916,40.7
20918,13.7
20919,42.5
20921,23.2
20924,-2.1
20928,30.8
20935,36.1
20936,-20.1
20938,32.6
20939,18.7
20946,39.5
20947,38.3
20948,33.8
20950,28.8
20952,16.8
20953,31.4
20954,27.3
20958,11.8
20960,28.8
20962,42.2
20963,5.6
20964,13.1
20972,19.7
20974,-2.1
20975,9.2
20977,33.1
20978,23.1
20979,36.6
20986,39.1
20987,13.9
20989,42.8
20990,13.2
20994,26.6
20997,16.5
20998,21.2
20999,18.5
21003,39.7
21004,15.4
21005,23.8
21006,32.5
21009,40.3
21011,15.9
21012,12.5
21013,33.4
21017,26.3
21022,18.3
21024,5.6
21025,25.0
21027,37.6
21028,41.9
21029,14.3
21030,28.6
21032,37.9
21033,30.0
21034,19.7
21035,22.2
21036,-15.0
21039,8.5
21040,31.6
21041,42.7
21044,41.4
21046,15.4
21049,31.3
21055,12.6
21056,9.7
21058,34.1
21059,39.9
21061,10.8
21062,19.8
21063,40.6
21065,21.4
21068,18.9
21070,26.3
21071,8.8
21072,38.2
21073,-4.7
21075,36.3
21076,22.6
21079,9.8
21082,38.5
21083,9.6
21084,10.2
21085,5.9
21086,41.6
21088,31.5
21089,27.3
21090,28.3
21091,40.5
21094,19.1
21099,18.5
21101,15.0
21102,16.5
21108,12.9
21110,27.5
21111,10.8
21112,31.4
21116,22.0
21121,8.9
21122,16.2
21123,42.1
21124,13.3
21128,29.5
21131,18.7
21134,5.2
21135,38.2
21136,-22.7
21137,27.8
21138,14.0
21139,30.1
21141,23.1
21143,36.9
21144,8.8
21145,25.6
21146,20.0
21149,23.6
21151,41.2
21153,27.2
21154,10.7
21156,17.2
21159,28.0
21163,3.0
21164,37.4
21168,7.1
21169,5.9
21172,40.1
21173,19.8
21174,-4.7
21176,7.0
21177,6.8
21181,8.0
21182,41.4
21185,36.1
21186,41.6
21187,30.4
21189,33.5
21190,8.2
21191,17.4
21193,7.8
21194,7.7
21198,18.5
21199,27.2
21200,12.3
21202,14.8
21205,14.6
21211,13.3
21216,34.3
21221,28.7
21223,18.5
21225,24.5
21229,10.3
21231,8.3
21232,13.8
21236,-22.7
21240,6.8
21243,33.1
21245,24.5
21249,29.9
21250,21.0
21253,12.3
21256,37.4
21257,30.3
21260,19.3
21262,0.5
21265,26.8
21266,6.9
21267,30.9
21269,41.1
21270,39.7
21272,36.2
21273,-7.2
21278,37.4
21280,23.2
21285,41.6
21288,12.5
21290,40.4
21299,18.5
21300,7.8
21308,15.0
21309,15.0
21310,9.7
21311,10.8
21314,30.7
21315,40.9
21316,22.7
21317,28.9
21318,28.9
21323,23.6
21324,20.7
21327,39.2
21329,18.8
21330,17.0
21331,20.9
21333,28.0
21335,9.8
21336,-12.4
21348,7.7
21349,18.5
21351,42.7
21354,25.8
21355,38.4
21358,5.8
21360,13.1
21362,-2.1
21366,8.1
21369,32.6
21370,20.1
21372,15.9
21374,-15.0
21380,23.3
21381,7.4
21382,28.9
21384,42.0
21387,13.5
21388,28.8
21390,6.1
21392,12.2
21395,14.9
21396,9.4
21397,28.9
21399,28.1
21400,8.2
21403,21.1
21407,12.2
21410,39.7
21411,0.5
21413,28.2
21415,7.5
21416,37.2
21417,21.5
21418,5.6
21421,14.3
21423,28.8
21433,13.6
21434,26.9
21435,7.6
21436,-7.2
21437,26.7
21439,13.7
21440,11.8
21442,18.0
21444,35.0
21445,25.3
21447,38.6
21448,26.2
21449,29.1
21452,20.3
21455,22.3
21456,8.9
21460,5.6
21461,19.5
21462,27.9
21464,22.5
21465,14.9
21467,37.1
21468,26.6
21470,37.1
21471,11.3
21472,-2.1
21473,12.1
21474,12.0
21478,28.4
21480,33.9
21481,14.8
21484,41.6
21485,31.0
21487,15.6
21489,41.5
21491,35.5
21492,33.4
21493,21.3
21495,31.7
21496,25.6
21497,15.9
21498,24.3
21499,38.1
21502,38.6
21503,7.8
21506,34.8
21510,13.3
21511,13.5
21512,6.8
21513,14.8
21514,28.0
21515,24.8
21516,17.2
21518,24.0
21519,8.2
21520,17.7
21521,31.7
21522,8.2
21523,27.6
21524,30.1
21525,31.4
21527,34.3
21528,39.6
21530,31.5
21532,11.3
21533,-12.4
21534,23.3
21535,23.2
21540,28.2
21542,11.5
21544,18.5
21547,31.3
21549,8.7
21552,10.8
21560,10.8
21563,32.1
21564,15.1
21567,19.8
21568,13.9
21570,11.4
21572,-4.7
21575,20.7
21576,38.7
21578,41.7
21579,20.0
21580,5.9
21581,10.5
21584,41.6
21585,17.3
21586,16.3
21590,25.3
21592,5.3
21595,28.7
21596,18.1
21597,18.5
21600,28.5
21603,26.6
21604,23.6
21608,34.2
21609,13.3
21611,32.4
21612,41.9
21615,35.3
21616,12.4
21619,36.6
21621,13.3
21623,42.1
21625,37.4
21630,17.0
21632,18.2
21635,-22.7
21637,26.4
21638,29.5
21640,10.5
21641,32.4
21643,15.2
21645,8.2
21647,7.4
21648,23.6
21649,30.7
21650,42.5
21652,41.6
21655,22.3
21657,13.3
21659,25.1
21660,0.5
21661,10.6
21662,18.5
21663,41.4
21664,22.6
21665,21.4
21669,8.9
21671,-7.2
21678,18.9
21680,26.1
21681,32.8
21684,39.1
21687,11.1
21688,12.9
21691,35.3
21692,25.6
21693,18.7
21695,41.3
21697,18.5
21698,6.2
21699,41.0
21700,31.6
21701,27.0
21703,11.3
21706,14.6
21707,29.2
21708,10.3
21709,13.3
21710,22.7
21716,41.5
21717,36.9
21720,11.5
21722,18.5
21726,9.2
21727,38.7
21729,31.0
21730,24.8
21731,12.7
21734,-22.7
21737,11.5
21738,21.8
21739,32.2
21742,42.3
21744,34.0
21747,21.0
21748,16.0
21750,18.3
21753,12.0
21756,22.9
21758,5.3
21759,28.5
21761,0.5
21764,37.1
21765,25.9
21768,10.2
21772,-7.2
21773,22.9
21775,36.5
21777,7.6
21778,30.9
21780,11.1
21781,28.3
21783,21.3
21784,41.6
21785,38.7
21787,28.9
21788,17.4
21789,11.0
21790,32.8
21792,17.4
21793,17.6
21796,18.5
21800,31.0
21804,5.7
21807,41.4
21809,8.2
21810,38.6
21812,6.2
21820,-4.7
21823,9.4
21824,16.5
21827,25.4
21828,14.7
21829,9.9
21830,21.3
21831,11.6
21832,31.2
21833,-20.1
21834,5.5
21835,20.9
21837,42.8
21838,10.1
21840,14.1
21842,6.5
21843,33.3
21845,25.1
21847,26.2
21849,5.1
21850,39.4
21851,30.4
21854,30.9
21855,38.3
21859,5.6
21861,29.3
21864,12.5
21866,22.4
21867,35.7
21868,26.8
21870,-2.1
21874,42.3
21878,34.2
21882,41.6
21883,10.4
21888,41.4
21889,6.1
21891,28.0
21894,38.1
21895,32.0
21896,15.9
21897,13.4
21902,21.0
21903,39.2
21907,21.2
21908,15.9
21909,19.6
21914,26.2
21915,32.6
21916,16.6
21917,14.5
21919,37.6
21920,0.5
21926,14.7
21929,15.6
21931,14.6
21932,-12.4
21935,40.8
21941,19.8
21943,21.6
21945,31.3
21946,15.0
21947,22.6
21951,6.2
21955,25.8
21958,10.8
21959,16.0
21961,32.9
21962,26.0
21966,8.8
21970,-4.7
21971,32.7
21972,8.6
21973,20.5
21974,10.4
21983,41.6
21984,40.9
21985,36.5
21987,11.5
21990,5.1
21992,9.9
21993,8.6
21995,15.9
21996,18.6
22000,17.1
22001,5.7
22004,28.2
22006,35.6
22007,13.3
22009,28.4
22012,42.2
22020,10.8
22022,20.8
22025,32.8
22026,34.4
22028,9.6
22033,-20.1
22034,36.8
22035,31.9
22036,19.2
22038,31.5
22039,31.5
22041,10.1
22045,35.1
22046,26.2
22047,26.0
22050,6.8
22053,24.1
22055,25.8
22059,5.6
22060,42.4
22067,29.6
22069,29.2
22070,-4.7
22071,13.9
22072,40.0
22074,33.1
22075,41.3
22076,37.3
22078,16.6
22079,42.8
22081,11.6
22082,44.2
22086,17.9
22088,38.1
22089,12.5
22091,18.8
22092,34.3
22094,8.3
22095,18.5
22097,39.8
22099,34.5
22103,36.0
22104,17.1
22105,31.1
22106,36.7
22107,22.6
22108,10.8
22112,31.8
22114,26.0
22117,11.7
22120,15.9
22126,6.5
22129,8.1
22130,21.9
22132,-22.7
22133,25.2
22136,5.7
22138,14.0
22139,14.7
22140,41.6
22144,35.5
22146,23.6
22149,25.3
22152,35.3
22159,0.5
22160,5.3
22161,33.9
22162,22.9
22163,36.8
22164,21.4
22166,35.4
22170,-4.7
22174,37.3
22175,16.8
22176,39.2
22177,11.8
22179,42.7
22181,13.4
22182,39.1
22183,41.4
22187,17.5
22190,31.3
22191,16.2
22193,32.8
22194,27.7
22195,18.5
22198,11.9
22199,17.4
22204,35.2
22205,26.4
22207,8.2
22210,21.8
22215,21.9
22217,27.8
22218,-2.1
22219,42.3
22221,8.4
22223,30.9
22224,34.8
22227,42.6
22228,35.3
22231,13.5
22232,-17.5
22234,31.9
22236,33.8
22237,22.8
22239,41.9
22240,21.8
22241,14.5
22245,26.2
22247,34.1
22249,30.9
22250,8.3
22253,19.8
22254,25.9
22255,42.2
22257,8.2
22261,37.3
22264,41.8
22265,26.7
22268,0.5
22269,39.6
22270,6.5
22273,33.7
22275,38.4
22279,30.1
22280,28.8
22282,41.6
22286,11.9
22289,34.5
22291,12.7
22293,-2.1
22294,32.0
22295,27.6
22297,19.3
22298,5.3
22299,24.5
22305,23.6
22310,15.3
22311,21.4
22313,33.4
22315,9.9
22316,24.3
22317,27.0
22318,3.0
22324,24.6
22325,28.5
22326,13.6
22327,31.1
22328,40.0
22329,-4.7
22331,15.7
22334,39.3
22336,33.1
22337,33.4
22340,32.8
22341,41.6
22342,26.7
22343,33.7
22347,23.2
22351,38.6
22353,18.5
22355,37.1
22359,9.8
22361,9.0
22362,39.4
22364,17.5
22367,13.3
22368,20.0
22371,6.8
22372,34.8
22373,37.3
22379,15.9
22380,13.0
22382,30.7
22383,33.4
22386,38.5
22387,30.7
22388,38.5
22389,10.5
22391,-20.1
22392,18.9
22393,29.4
22394,40.8
22396,37.7
22399,24.5
22401,24.5
22404,9.0
22405,23.6
22406,34.4
22407,14.8
22414,13.9
22417,0.5
22419,26.9
22420,20.0
22421,14.2
22426,32.0
22429,-7.2
22430,39.1
22431,5.3
22433,5.2
22436,14.0
22438,27.3
22439,28.4
22440,42.2
22441,41.6
22444,37.3
22445,40.8
22446,29.8
22447,16.3
22450,15.5
22451,22.6
22452,39.2
22454,18.5
22455,30.1
22458,38.0
22459,16.8
22460,9.2
22465,41.6
22466,10.8
22468,22.2
22469,27.1
22472,36.5
22474,33.3
22475,10.1
22476,29.3
22477,40.2
22478,15.9
22479,15.8
22480,13.8
22481,34.2
22486,36.6
22487,42.8
22490,9.1
22492,-25.3
22493,19.9
22494,40.6
22497,32.9
22499,14.5
22503,27.0
22504,39.9
22505,21.0
22506,13.0
22509,28.2
22510,17.5
22511,28.8
22512,32.0
22513,26.6
22516,7.1
22517,-2.1
22518,35.9
22522,31.8
22523,26.7
22524,21.3
22528,24.2
22529,16.9
22530,-15.0
22531,24.3
22532,13.5
22533,30.5
22534,17.5
22536,30.3
22537,35.3
22538,7.7
22542,23.1
22543,28.8
22545,16.8
22550,36.3
22552,42.7
22554,30.7
22556,10.8
22558,23.6
22561,41.3
22566,13.0
22568,-4.7
22569,42.9
22571,29.8
22573,8.7
22576,31.1
22577,22.7
22578,41.4
22579,8.6
22580,40.0
22581,41.6
22584,29.2
22587,12.3
22591,30.0
22592,29.4
22593,18.5
22598,5.1
22600,24.3
22602,13.3
22603,27.2
22605,13.3
22607,10.6
22608,12.5
22610,32.0
22614,17.2
22615,5.5
22616,39.4
22618,15.9
22620,20.5
22628,27.3
22631,-22.7
22632,17.9
22633,41.2
22634,17.7
22639,34.1
22643,32.7
22644,23.6
22649,13.5
22651,34.1
22654,41.6
22656,40.3
22657,0.5
22663,31.0
22664,19.9
22665,12.4
22666,22.4
22667,16.9
22668,-4.7
22669,30.5
22671,17.6
22673,9.5
22674,28.7
22676,10.9
22677,27.6
22680,41.6
22682,7.0
22684,10.3
22686,9.9
22687,15.2
22690,23.5
22691,16.1
22693,18.5
22701,35.1
22702,17.5
22705,6.3
22706,10.8
22707,14.2
22709,18.6
22712,19.0
22713,31.4
22715,42.5
22718,21.0
22723,6.6
22724,42.3
22730,-20.1
22731,6.4
22732,20.6
22733,22.9
22734,7.8
22737,20.9
22739,16.7
22743,40.6
22744,21.0
22746,35.1
22748,26.4
22749,35.4
22750,35.4
22753,9.2
22754,11.1
22757,0.5
22760,25.9
22761,14.5
22764,30.2
22765,8.5
22766,29.1
22768,-7.2
22772,23.1
22773,32.8
22776,34.9
22778,37.0
22779,17.3
22780,41.6
22782,21.6
22784,20.4
22786,39.4
22790,11.4
22792,10.7
22793,18.5
22795,42.2
22797,29.7
22800,29.9
22803,29.0
22805,8.2
22806,18.9
22807,16.2
22810,20.9
22813,31.4
22815,14.4
22816,-2.1
22817,5.2
22820,14.8
22822,19.0
22823,35.8
22824,17.9
22825,17.7
22828,9.8
22830,-17.5
22831,20.5
22832,31.8
22833,21.3
22834,24.0
22835,23.5
22842,25.5
22843,26.2
22844,35.5
22846,16.8
22847,35.2
22848,13.8
22850,10.2
22854,20.6
22855,5.6
22858,42.5
22861,26.9
22863,27.8
22866,0.5
22868,15.0
22875,36.3
22876,6.3
22878,33.9
22882,24.7
22884,31.4
22886,36.3
22889,20.2
22890,19.3
22891,3.0
22895,30.1
22898,36.1
22899,10.4
22901,41.5
22902,28.8
22904,38.8
22906,26.4
22907,12.0
22913,31.1
22915,10.8
22918,10.7
22920,26.4
22921,19.2
22922,17.8
22925,5.9
22926,9.0
22927,-7.2
22928,34.4
22933,6.4
22934,29.4
22935,39.8
22937,5.9
22938,32.4
22939,41.6
22940,41.3
22941,30.8
22943,11.6
22946,7.1
22947,27.2
22951,18.5
22952,12.9
22954,16.8
22955,6.3
22956,21.6
22957,23.1
22959,11.2
22960,9.4
22963,11.9
22965,10.8
22970,7.8
22972,29.7
22974,31.1
22975,33.7
22976,36.1
22977,18.5
22985,27.4
22986,29.1
22987,36.9
22989,-22.7
22991,33.1
22995,11.0
22999,40.0
23000,34.8
23002,28.2
23003,21.0
23006,9.3
23007,37.3
23008,13.5
23009,23.3
23010,11.1
23011,39.9
23014,6.6
23015,0.5
23023,7.1
23024,26.3
23027,-9.8
23028,38.6
23032,24.4
23033,29.8
23035,21.9
23036,15.6
23037,22.3
23038,7.1
23039,15.9
23040,41.6
23041,26.3
23042,23.7
23043,25.6
23051,38.8
23052,21.0
23053,35.0
23055,38.8
23056,40.5
23058,7.4
23060,12.4
23061,11.0
23064,8.2
23069,30.1
23071,36.6
23072,33.4
23073,6.0
23074,8.0
23075,-4.7
23080,42.9
23082,21.0
23084,26.9
23088,7.0
23089,-17.5
23090,16.1
23093,20.8
23094,20.9
23096,24.1
23097,17.3
23098,33.1
