0,147.1
1,160.6
2,157.4
4,151.6
5,172.8
6,122.8
7,160.0
9,153.8
10,149.7
11,132.9
12,144.5
15,149.7
18,161.1
19,136.0
20,163.5
23,175.4
24,133.4
25,140.5
26,183.3
28,134.6
30,137.6
31,116.3
33,139.4
35,115.0
36,135.2
39,113.9
40,173.9
41,113.5
44,170.2
45,133.1
47,117.0
49,143.6
52,133.0
54,136.8
55,145.4
57,167.4
58,157.9
60,136.7
65,170.2
67,120.6
68,142.9
74,149.7
75,147.1
77,165.8
78,164.9
80,118.4
82,169.2
84,144.6
86,167.7
89,136.7
92,132.5
93,170.4
95,152.8
96,157.4
98,125.0
104,131.7
106,154.8
107,177.6
110,125.2
111,135.0
117,149.7
119,146.6
120,150.1
121,126.7
125,119.4
127,126.3
128,116.2
130,136.8
131,169.1
135,161.6
141,144.5
145,128.0
146,158.3
147,178.9
152,139.4
154,183.5
156,142.0
158,112.8
161,145.6
162,150.1
163,172.8
164,123.1
167,178.5
168,115.1
175,162.5
182,169.6
184,146.0
186,162.5
191,145.6
198,160.0
199,110.7
200,172.0
203,142.6
206,133.7
207,114.7
208,123.6
209,152.2
210,143.4
211,132.9
212,134.5
214,159.6
221,160.0
222,179.5
223,164.7
224,146.2
226,170.4
227,148.4
228,117.6
229,152.3
231,118.1
232,147.1
233,141.9
234,145.9
236,131.9
238,175.2
239,147.2
241,165.1
243,180.5
244,143.2
246,138.4
248,122.2
252,170.7
253,154.2
254,160.0
256,114.9
258,133.3
260,125.7
261,139.7
264,154.1
267,157.4
269,153.2
270,176.6
272,157.2
273,142.3
278,152.2
281,182.9
282,135.6
289,147.1
291,155.7
292,153.1
293,169.3
294,161.7
296,118.4
301,162.5
302,149.9
303,151.6
305,146.0
306,153.3
309,149.8
312,142.0
313,127.5
314,179.8
315,163.2
317,122.3
318,162.8
323,170.2
326,150.5
330,140.7
334,149.2
335,157.4
337,177.8
340,122.8
341,132.1
344,130.8
346,180.3
347,149.7
353,168.2
358,149.7
359,132.3
361,166.3
362,177.6
363,160.2
364,164.3
366,153.7
367,142.9
369,144.5
370,152.1
371,175.8
372,171.8
376,176.7
377,134.6
378,163.2
379,136.1
380,165.1
381,149.0
383,180.9
384,165.6
386,173.2
388,113.9
390,120.8
391,143.1
393,139.4
399,153.8
404,170.2
405,164.8
407,155.7
409,177.3
410,173.4
411,172.9
413,171.5
415,167.7
416,132.4
419,150.5
423,157.9
426,178.0
427,160.0
428,143.9
430,116.1
434,111.1
438,154.8
441,134.6
445,153.5
446,132.4
449,149.7
455,182.4
456,179.4
459,170.8
461,175.4
463,169.2
464,169.6
465,125.5
467,147.2
469,175.5
472,149.2
473,144.5
474,139.3
475,149.3
478,116.2
479,164.5
480,157.9
481,125.7
482,147.7
484,167.7
485,166.4
489,173.7
492,118.6
493,116.1
495,162.5
497,128.4
501,184.0
502,146.9
505,150.4
506,154.8
508,130.6
509,178.7
514,153.2
515,176.6
517,111.7
518,152.2
519,169.6
520,159.3
523,175.0
525,173.3
527,153.0
529,173.4
530,144.5
533,172.5
534,143.4
539,153.3
540,137.8
541,170.2
542,121.1
550,174.6
552,147.1
553,179.3
554,153.9
558,126.6
561,169.2
564,165.1
566,116.7
568,172.2
571,133.5
572,147.8
573,166.3
575,162.5
577,166.6
579,144.9
583,166.2
584,167.7
585,160.2
586,152.2
587,124.6
588,160.5
589,111.5
590,165.8
593,119.1
594,128.1
595,153.8
599,149.7
604,110.8
605,181.9
608,149.9
610,139.4
611,174.0
612,183.9
613,133.1
614,158.5
615,133.6
616,119.1
619,164.3
620,113.2
621,175.4
623,114.4
627,149.8
629,172.0
632,157.4
634,169.8
635,174.2
636,163.8
638,113.2
642,134.6
643,175.9
644,167.7
646,132.5
648,163.6
655,165.1
656,125.5
659,115.2
661,135.7
662,162.3
663,169.0
664,147.2
666,138.4
667,149.7
669,140.2
671,178.6
672,115.9
673,161.8
674,148.2
675,155.0
678,152.2
679,152.6
681,125.7
685,128.1
688,156.4
689,162.8
690,136.8
694,157.0
695,150.8
696,183.2
698,183.2
699,173.1
700,142.3
701,175.4
702,137.5
705,181.7
706,143.8
707,128.5
711,158.8
712,157.4
714,174.6
715,171.5
717,128.0
719,146.6
720,123.9
721,136.0
724,160.0
728,175.8
734,117.6
735,131.8
736,154.8
739,139.5
741,160.9
744,113.2
745,120.1
747,142.0
748,148.1
753,128.0
754,146.5
755,144.3
756,174.1
758,152.2
759,150.9
764,141.6
765,167.4
766,138.4
767,110.4
768,178.6
770,136.8
771,132.1
773,149.1
774,138.3
775,129.1
777,115.2
779,162.9
780,140.9
781,175.4
782,112.6
787,117.9
789,184.9
790,144.6
793,160.0
795,181.2
798,157.6
799,125.4
800,150.2
801,171.4
804,154.8
807,178.9
810,140.7
811,129.9
813,183.1
816,149.7
818,182.3
821,112.8
824,160.2
827,142.0
828,151.0
829,120.2
831,183.5
834,110.6
835,120.7
838,165.1
839,141.5
840,141.7
841,180.0
843,148.2
846,117.7
847,157.5
849,144.5
851,160.7
853,144.0
855,149.7
857,153.4
858,154.4
860,169.6
862,178.0
865,179.5
867,153.2
868,153.1
872,113.4
873,165.1
876,147.1
880,129.5
881,166.7
882,178.8
883,174.5
884,157.4
885,157.0
887,161.9
889,110.3
892,123.0
894,147.9
896,149.7
898,167.3
899,130.9
902,156.0
907,144.5
909,144.1
910,130.2
912,134.0
915,182.1
916,118.4
918,167.7
921,163.0
922,172.3
923,167.5
924,150.3
928,177.0
930,139.4
933,120.2
935,146.8
937,144.0
939,176.6
942,165.1
943,111.6
944,182.6
946,170.5
948,182.0
949,183.9
953,154.8
955,169.2
957,166.8
959,172.9
961,171.6
964,142.0
968,168.2
969,167.4
972,112.6
975,142.0
976,132.9
978,125.6
980,147.8
984,149.2
985,114.9
986,147.0
987,139.4
988,151.1
989,143.2
990,166.1
993,182.1
994,126.7
995,127.6
996,140.4
999,172.8
1003,167.1
1004,143.7
1006,172.2
1007,117.1
1008,163.8
1010,147.1
1011,155.4
1012,156.7
1013,118.5
1017,181.4
1018,124.5
1020,171.9
1022,154.8
1023,175.5
1024,182.7
1025,124.0
1026,119.6
1027,120.0
1028,129.8
1034,122.5
1035,144.5
1037,113.0
1038,129.6
1047,139.4
1048,159.1
1049,122.8
1052,175.2
1053,177.1
1058,155.8
1060,180.5
1061,164.3
1062,136.7
1064,144.6
1065,110.5
1066,166.8
1071,115.0
1072,114.2
1073,167.7
1076,161.8
1078,161.7
1079,172.9
1082,130.4
1083,152.4
1085,144.5
1086,122.0
1088,137.8
1096,168.6
1097,160.0
1100,173.0
1101,158.2
1106,114.5
1107,146.2
1109,156.2
1110,144.5
1113,117.4
1114,157.6
1116,120.8
1119,166.3
1120,150.8
1122,154.8
1124,144.9
1125,154.1
1127,165.2
1128,145.6
1129,165.8
1130,183.7
1132,174.9
1133,153.1
1134,125.4
1135,147.1
1138,123.3
1139,115.9
1143,147.2
1145,132.4
1146,120.8
1147,134.2
1149,131.7
1151,129.9
1157,176.8
1158,158.4
1160,167.7
1163,126.0
1165,141.4
1166,118.1
1168,172.1
1169,113.9
1171,124.4
1172,154.8
1174,138.7
1175,142.4
1176,161.6
1178,126.1
1179,145.6
1181,121.2
1182,140.0
1183,162.1
1184,142.0
1185,122.7
1186,180.1
1191,121.4
1194,112.6
1196,154.6
1198,162.5
1199,168.5
1200,127.7
1202,177.0
1203,141.1
1205,120.2
1206,152.8
1207,124.7
1210,149.7
1213,181.9
1214,153.8
1215,110.7
1217,144.9
1218,155.4
1222,154.8
1223,112.3
1225,117.2
1231,128.3
1233,135.0
1234,142.0
1235,169.8
1236,182.4
1237,111.9
1239,144.6
1241,156.2
1243,116.7
1244,166.4
1247,131.7
1250,112.6
1252,143.9
1253,122.0
1256,118.2
1258,150.5
1260,165.1
1261,138.6
1263,113.1
1264,148.2
1271,176.3
1272,165.1
1273,159.1
1274,147.2
1276,123.9
1280,111.9
1284,171.8
1285,142.0
1291,133.7
1294,179.2
1297,162.5
1299,168.0
1301,165.8
1302,169.4
1303,184.9
1306,118.3
1308,122.5
1309,149.7
1310,170.6
1313,182.3
1321,144.5
1324,145.5
1325,110.5
1335,139.4
1340,129.3
1341,128.4
1342,114.0
1344,183.4
1347,134.2
1348,171.9
1350,167.0
1351,132.0
1352,169.0
1354,177.7
1355,123.8
1357,120.8
1358,158.6
1359,165.1
1364,111.2
1366,135.7
1368,126.1
1369,154.1
1372,154.8
1373,166.6
1374,120.6
1375,164.9
1377,180.2
1383,164.8
1384,134.2
1386,153.8
1389,132.9
1390,171.7
1395,169.8
1396,145.6
1397,162.5
1401,123.5
1402,156.3
1405,125.6
1406,123.7
1407,158.1
1408,136.5
1410,152.2
1413,117.1
1414,179.2
1418,145.3
1420,115.9
1421,144.9
1422,152.2
1424,171.4
1425,164.0
1426,111.8
1427,182.8
1429,120.0
1432,181.1
1433,172.0
1434,149.7
1435,136.9
1436,150.5
1441,118.4
1443,112.8
1444,117.9
1446,131.7
1447,153.1
1450,118.3
1455,181.6
1459,150.3
1460,160.0
1461,179.2
1463,116.8
1466,170.4
1467,150.5
1468,140.3
1470,166.8
1472,149.7
1475,131.4
1476,155.5
1477,150.2
1480,141.0
1484,144.5
1488,145.9
1490,142.1
1491,175.9
1492,183.5
1494,160.6
1496,119.5
1497,175.4
1498,144.8
1500,184.9
1506,178.1
1509,157.4
1510,147.5
1512,130.2
1513,144.2
1514,111.8
1516,166.2
1518,142.9
1521,149.7
1522,159.3
1525,183.2
1526,183.3
1528,118.2
1529,112.4
1530,131.9
1531,173.5
1534,144.5
1536,119.8
1537,142.8
1542,113.3
1543,140.3
1544,165.3
1545,167.3
1547,134.2
1551,180.0
1555,167.6
1557,180.7
1558,125.1
1559,165.1
1561,155.6
1562,164.8
1564,119.6
1565,124.8
1567,134.5
1568,127.3
1571,152.2
1572,150.5
1573,148.2
1576,130.3
1577,180.8
1578,112.9
1584,136.8
1585,121.8
1586,126.8
1590,182.4
1591,140.8
1597,170.2
1598,130.6
1599,124.1
1601,163.6
1608,110.7
1609,160.0
1610,114.9
1611,122.5
1614,165.8
1616,146.9
1617,180.4
1618,121.1
1620,111.1
1621,177.7
1622,152.2
1624,110.1
1631,125.6
1632,126.3
1633,114.6
1634,154.8
1635,111.4
1637,148.9
1640,128.7
1641,131.9
1646,139.4
1647,163.6
1649,140.2
1650,127.9
1651,118.3
1653,110.4
1655,148.7
1659,157.4
1660,152.9
1662,168.4
1663,184.9
1665,119.1
1667,118.9
1670,169.9
1671,111.7
1672,149.7
1676,181.6
1677,173.8
1679,138.8
1682,166.5
1683,157.1
1684,136.8
1685,171.5
1686,120.4
1689,147.1
1691,180.0
1693,165.7
1696,172.8
1698,153.6
1700,149.9
1701,168.0
1702,164.5
1703,165.5
1704,156.3
1706,139.1
1709,154.8
1710,150.6
1711,165.0
1712,132.5
1713,184.2
1715,181.3
1717,180.7
1719,175.0
1721,139.4
1723,151.1
1724,146.0
1726,129.4
1728,128.4
1732,113.8
1734,144.5
1735,179.1
1739,171.2
1740,182.9
1741,148.6
1743,161.3
1745,128.7
1746,134.2
1753,118.9
1754,117.3
1758,172.6
1759,152.2
1764,181.5
1770,116.2
1771,144.5
1772,117.2
1773,176.2
1774,133.9
1775,159.7
1777,151.6
1779,137.7
1780,129.4
1781,147.6
1783,134.2
1788,166.9
1789,182.2
1790,133.2
1791,183.0
1793,124.2
1795,129.5
1796,173.6
1797,167.7
1798,110.9
1800,137.2
1809,154.8
1815,134.3
1816,127.9
1817,141.0
1821,142.0
1822,112.2
1824,134.1
1825,180.8
1826,155.5
1828,128.8
1830,153.7
1833,154.8
1834,162.8
1840,174.7
1841,142.4
1842,121.1
1843,114.0
1844,114.4
1846,144.5
1848,120.3
1851,176.1
1854,164.1
1855,170.8
1857,163.0
1858,150.4
1859,157.4
1861,116.9
1863,148.0
1864,179.0
1865,158.9
1866,148.5
1870,154.7
1871,147.1
1872,167.5
1873,182.6
1877,121.2
1880,176.8
1882,120.6
1884,134.2
1885,149.8
1886,147.6
1887,115.3
1889,129.7
1891,134.4
1892,120.2
1893,127.1
1896,167.7
1897,178.5
1905,157.8
1907,124.4
1908,162.5
1913,133.4
1914,181.3
1917,126.7
1920,184.7
1921,144.5
1925,111.3
1926,132.1
1930,122.0
1931,117.1
1934,157.4
1936,167.9
1941,181.3
1945,151.4
1946,147.1
1950,134.9
1957,151.2
1958,152.2
1959,161.5
1960,180.4
1961,157.1
1963,169.0
1968,183.1
1969,135.9
1971,142.0
1977,111.3
1979,159.9
1980,176.9
1983,139.4
1985,118.6
1986,112.4
1988,144.8
1989,123.0
1991,114.2
1996,172.8
1997,142.0
2000,111.8
2001,116.4
2003,152.1
2004,149.2
2005,144.4
2006,112.2
2007,164.3
2009,157.4
2010,165.9
2011,123.2
2013,183.8
2015,119.5
2019,165.1
2021,139.4
2022,179.4
2023,142.0
2024,136.3
2026,119.4
2027,159.1
2032,129.8
2033,162.5
2036,149.9
2041,138.1
2043,147.3
2044,142.2
2045,157.4
2046,166.4
2049,126.8
2050,171.1
2051,176.8
2056,178.5
2058,166.5
2059,162.5
2061,133.4
2063,164.4
2064,182.8
2066,132.9
2067,123.3
2068,120.8
2070,143.0
2071,149.7
2072,184.1
2073,173.9
2074,132.5
2077,171.9
2078,111.9
2080,156.7
2082,135.0
2083,139.4
2084,110.5
2085,147.4
2089,165.8
2090,156.9
2091,125.4
2093,164.9
2094,146.9
2096,170.2
2097,121.2
2098,127.6
2099,151.9
2100,141.6
2101,146.8
2102,140.7
2105,122.7
2108,157.4
2109,180.5
2113,166.8
2114,166.2
2115,119.5
2116,144.4
2117,181.5
2119,139.6
2120,142.0
2121,184.0
2125,148.2
2128,173.5
2129,162.8
2131,139.1
2134,167.7
2135,136.3
2137,162.4
2138,140.0
2139,121.4
2144,119.8
2146,149.7
2148,183.8
2149,181.7
2150,156.6
2153,143.1
2157,184.8
2158,152.2
2159,173.9
2165,143.1
2167,174.2
2170,147.1
2171,130.2
2172,156.8
2176,145.5
2178,172.2
2182,159.7
2183,134.2
2186,153.4
2189,157.9
2190,137.1
2191,112.7
2194,183.1
2196,165.1
2197,118.2
2199,148.3
2202,147.5
2208,162.5
2210,146.3
2213,132.6
2215,120.9
2216,127.6
2219,174.8
2220,170.9
2221,144.5
2223,133.1
2225,133.0
2226,141.4
2228,165.4
2230,138.4
2232,121.4
2233,167.7
2234,118.3
2235,116.5
2236,169.3
2237,142.5
2239,129.0
2242,165.4
2244,136.7
2245,154.8
2246,136.8
2250,153.1
2252,122.9
2253,182.7
2254,159.5
2255,130.7
2256,131.2
2257,171.4
2258,152.2
2260,167.5
2263,117.6
2264,163.3
2265,147.0
2266,124.7
2267,151.3
2269,149.8
2271,149.7
2272,144.8
2275,110.2
2276,160.2
2278,127.5
2279,126.9
2281,160.8
2283,142.0
2288,169.2
2290,147.5
2292,174.8
2293,170.5
2295,167.7
2297,164.3
2298,149.6
2299,130.8
2300,170.1
2301,150.3
2302,184.5
2304,140.4
2308,152.2
2309,175.0
2310,111.4
2311,173.5
2313,171.2
2314,184.5
2316,123.6
2317,122.1
2320,175.9
2321,136.8
2322,133.3
2325,159.2
2328,130.9
2333,167.7
2335,170.2
2337,124.0
2339,174.7
2340,118.9
2342,140.1
2343,133.3
2344,165.8
2345,160.0
2346,149.6
2351,110.3
2353,180.9
2354,147.3
2355,117.5
2358,147.1
2359,164.7
2370,149.7
2371,175.4
2372,138.9
2373,184.1
2379,125.2
2382,129.1
2383,114.7
2384,162.4
2389,117.9
2390,143.5
2391,172.1
2394,156.7
2396,154.8
2397,178.4
2398,113.7
2402,116.7
2403,130.7
2406,180.4
2408,149.7
2409,125.7
2410,178.9
2412,145.6
2419,118.8
2420,142.0
2421,118.0
2422,161.7
2424,166.1
2425,154.2
2426,145.0
2427,158.9
2428,141.1
2430,168.6
2433,170.2
2436,117.9
2438,157.3
2439,139.1
2440,179.5
2442,167.0
2444,180.5
2445,152.2
2452,161.3
2458,142.0
2461,156.3
2464,166.3
2468,113.8
2470,147.1
2473,148.0
2475,117.4
2481,158.6
2482,173.4
2483,142.0
2484,157.7
2486,171.6
2488,134.6
2490,137.3
2493,110.7
2494,119.0
2495,160.0
2496,125.5
2498,142.8
2499,126.8
2507,147.1
2508,149.8
2509,163.0
2517,111.7
2518,179.2
2520,134.2
2522,151.9
2529,160.7
2530,172.8
2531,149.2
2533,165.1
2534,110.3
2538,120.3
2544,145.1
2545,160.0
2548,167.0
2551,163.6
2552,145.1
2553,180.9
2555,117.9
2556,112.1
2557,147.1
2558,161.8
2561,118.3
2562,156.2
2565,183.2
2567,121.6
2569,177.0
2570,152.2
2572,160.8
2578,175.9
2579,154.1
2581,184.1
2582,139.4
2584,128.8
2585,146.8
2587,119.0
2590,124.8
2595,154.8
2596,135.4
2600,127.0
2603,143.6
2604,141.4
2606,174.7
2608,142.0
2609,177.5
2610,110.5
2613,169.9
2614,151.0
2615,160.5
2618,163.7
2620,134.2
2622,137.5
2623,136.4
2625,175.0
2626,147.5
2628,111.1
2630,158.8
2631,160.2
2632,170.2
2634,132.0
2636,169.9
2641,120.1
2644,157.4
2648,175.7
2649,182.3
2651,122.2
2652,171.8
2653,139.3
2656,112.9
2657,184.5
2658,139.4
2662,155.2
2664,167.3
2665,151.4
2669,173.5
2670,152.2
2672,129.5
2675,160.0
2676,111.5
2677,170.1
2678,161.2
2679,136.7
2680,142.8
2682,139.4
2684,161.8
2688,128.4
2689,173.7
2693,178.6
2694,137.4
2695,154.8
2696,166.1
2697,175.8
2700,120.7
2702,134.1
2703,165.2
2704,172.9
2705,177.1
2706,171.8
2707,147.1
2710,139.1
2712,110.3
2713,179.6
2714,126.3
2715,137.3
2718,183.4
2719,134.2
2722,181.6
2724,158.7
2731,167.5
2732,177.0
2733,165.1
2735,121.7
2736,173.6
2740,162.7
2741,162.1
2742,156.5
2743,174.9
2744,153.3
2745,157.4
2747,131.6
2748,174.1
2752,147.8
2753,126.5
2757,144.5
2758,110.8
2765,178.5
2769,165.1
2770,165.4
2772,155.1
2773,170.7
2774,171.1
2775,133.7
2777,127.1
2779,121.1
2780,137.6
2782,149.7
2787,115.3
2788,145.7
2789,137.4
2792,170.6
2795,152.2
2796,151.3
2797,139.1
2799,131.8
2801,163.5
2803,128.4
2805,160.1
2806,180.2
2807,152.2
2808,174.7
2811,127.5
2816,151.2
2817,117.0
2819,134.4
2820,144.5
2822,171.5
2823,176.0
2824,130.7
2825,147.4
2827,129.5
2829,184.5
2831,146.8
2832,175.4
2835,171.5
2836,153.9
2842,141.8
2844,162.5
2846,181.9
2847,134.0
2851,128.5
2852,135.3
2853,165.8
2854,178.6
2855,118.3
2856,151.0
2857,144.5
2858,115.7
2860,143.7
2861,147.0
2865,170.5
2868,120.0
2869,154.4
2870,162.5
2873,167.4
2878,147.3
2880,117.4
2882,147.1
2883,137.2
2884,121.6
2888,174.1
2891,158.0
2893,167.2
2894,149.7
2895,170.9
2896,144.6
2897,127.0
2901,138.8
2903,121.5
2904,169.0
2905,142.6
2907,142.0
2908,165.4
2910,184.3
2911,167.9
2914,141.7
2916,144.7
2919,131.7
2920,120.6
2921,136.9
2926,143.1
2927,112.0
2929,125.3
2931,172.0
2932,162.5
2934,144.8
2937,137.1
2938,170.4
2939,166.6
2940,146.1
2941,184.6
2942,166.4
2944,146.1
2945,152.2
2946,164.2
2948,126.2
2949,146.5
2957,136.8
2966,133.0
2969,167.7
2977,127.1
2978,111.2
2980,123.9
2981,152.2
2982,143.2
2983,171.6
2986,173.0
2988,147.7
2990,134.3
2991,144.4
2992,123.6
2994,113.7
2995,147.1
2996,152.2
2997,134.9
2998,167.8
2999,139.6
3000,149.6
3002,183.6
3003,177.0
3004,123.9
3005,148.7
3006,132.5
3007,142.0
3009,113.4
3011,141.2
3014,128.8
3017,110.8
3019,142.0
3020,159.0
3021,138.3
3023,125.5
3025,145.9
3026,115.1
3027,172.6
3028,125.5
3029,135.4
3031,164.5
3032,172.8
3035,182.5
3036,140.1
3039,141.3
3042,120.4
3043,155.3
3044,160.0
3046,126.3
3051,149.7
3054,164.2
3056,172.7
3057,139.4
3061,155.6
3064,140.5
3067,160.4
3068,112.3
3069,170.2
3072,129.7
3076,178.9
3078,149.2
3082,152.2
3084,139.5
3086,161.0
3087,123.2
3088,162.0
3094,147.1
3095,168.5
3098,168.3
3100,129.5
3102,136.0
3103,111.9
3106,144.5
3108,149.4
3109,172.6
3110,167.9
3111,145.6
3112,153.3
3116,165.7
3117,181.8
3119,134.2
3122,134.6
3124,174.0
3125,142.2
3127,129.3
3129,110.7
3130,124.4
3131,159.2
3132,157.4
3133,134.1
3134,143.8
3135,165.3
3136,147.5
3137,176.1
3138,147.5
3140,135.4
3142,129.1
3143,142.7
3144,144.5
3145,115.8
3150,162.8
3151,112.1
3152,172.3
3154,149.5
3155,121.0
3156,134.2
3158,123.6
3160,125.8
3161,140.2
3165,172.8
3166,144.2
3169,165.1
3171,125.5
3173,114.5
3176,123.2
3178,180.8
3181,157.4
3182,121.0
3183,117.7
3184,167.1
3185,172.7
3186,172.3
3187,158.8
3192,146.8
3193,155.5
3194,149.7
3195,182.7
3198,118.0
3200,122.3
3201,168.5
3203,121.8
3204,176.2
3207,144.5
3208,137.9
3209,131.7
3211,172.8
3212,140.3
3213,151.5
3215,112.4
3219,131.7
3220,123.2
3222,117.8
3227,141.9
3228,153.4
3231,160.0
3233,125.5
3235,174.2
3237,123.4
3238,112.2
3239,123.5
3241,141.0
3242,182.1
3244,154.8
3245,152.6
3247,151.2
3249,117.2
3250,183.4
3251,130.0
3252,160.9
3253,130.1
3254,172.2
3255,114.5
3256,151.0
3257,144.5
3262,175.1
3263,143.8
3264,176.3
3265,167.0
3267,179.1
3268,170.5
3269,175.4
3271,116.0
3272,179.3
3273,143.4
3274,168.4
3276,176.6
3277,161.4
3278,180.6
3279,131.8
3280,124.9
3281,157.4
3284,123.9
3286,172.6
3287,123.8
3289,178.8
3290,138.3
3291,126.8
3294,139.4
3297,118.5
3300,170.6
3301,122.0
3303,130.9
3305,143.3
3306,147.1
3307,183.4
3317,178.7
3318,139.4
3320,110.4
3322,126.7
3323,152.2
3327,165.6
3331,166.7
3332,154.8
3339,134.4
3344,144.5
3348,114.6
3350,176.1
3354,156.2
3356,129.1
3360,156.0
3361,184.0
3362,134.4
3365,162.4
3366,126.4
3367,155.4
3368,165.1
3370,119.5
3371,162.6
3373,184.3
3376,147.0
3377,150.6
3381,157.4
3384,116.5
3386,177.1
3389,118.8
3393,139.1
3394,147.1
3398,136.1
3401,113.6
3402,183.1
3406,157.4
3412,152.2
3413,142.2
3414,119.4
3415,142.3
3416,141.5
3417,139.6
3418,134.8
3419,139.4
3420,122.9
3422,174.7
3428,151.5
3430,132.8
3431,152.2
3432,183.3
3433,154.1
3434,129.9
3435,166.2
3436,154.0
3437,111.8
3440,164.2
3443,139.4
3445,147.9
3447,151.0
3448,132.6
3451,110.2
3453,166.1
3454,184.5
3457,144.5
3458,166.5
3459,173.5
3463,111.6
3464,113.3
3469,175.4
3471,110.8
3473,163.6
3475,117.7
3476,182.0
3480,173.3
3481,162.5
3482,154.6
3483,122.4
3485,167.9
3493,142.0
3494,177.8
3495,168.2
3499,180.8
3500,176.2
3502,127.9
3505,112.4
3506,157.4
3508,129.4
3509,152.9
3511,112.6
3513,126.9
3515,177.4
3516,136.1
3518,139.4
3519,124.4
3521,125.5
3526,110.5
3527,122.6
3529,136.8
3531,152.2
3532,113.1
3542,170.7
3544,142.0
3546,177.9
3547,170.4
3550,135.8
3551,183.0
3552,118.5
3556,131.7
3560,176.4
3561,127.0
3566,135.3
3567,134.6
3568,162.5
3569,163.8
3570,177.3
3574,127.0
3576,140.4
3578,147.8
3580,152.2
3582,151.6
3583,152.0
3585,162.1
3587,125.6
3592,124.5
3594,142.0
3597,168.2
3598,124.5
3601,122.2
3606,160.0
3607,173.7
3609,139.6
3613,122.2
3615,142.0
3616,110.5
3617,150.3
3618,152.2
3619,136.0
3620,166.0
3622,150.4
3627,158.4
3628,119.2
3630,172.4
3631,154.8
3632,169.1
3633,166.4
3634,116.8
3635,176.0
3637,114.3
3639,168.5
3641,166.4
3642,139.5
3643,142.0
3645,178.1
3647,155.9
3649,156.1
3653,181.4
3656,131.7
3659,118.8
3662,128.2
3668,167.7
3669,147.2
3670,124.9
3673,146.1
3675,133.2
3678,137.9
3679,122.0
3681,160.0
3682,178.0
3685,138.8
3686,154.6
3688,175.0
3689,158.1
3691,152.5
3693,139.4
3695,177.6
3701,135.6
3703,183.9
3705,160.0
3706,117.3
3709,119.9
3710,139.7
3718,147.1
3719,115.7
3720,127.2
3722,146.1
3723,127.4
3725,140.1
3726,180.8
3727,174.1
3728,130.6
3729,133.9
3731,144.5
3732,160.1
3733,148.2
3734,178.8
3737,128.9
3738,117.7
3743,136.8
3745,177.9
3746,162.6
3748,176.8
3749,141.9
3750,143.6
3751,167.5
3752,112.0
3753,152.8
3754,121.9
3756,131.7
3757,165.6
3759,150.0
3762,130.1
3766,175.6
3768,160.0
3773,130.3
3774,124.3
3778,162.9
3779,114.7
3780,149.7
3781,161.8
3782,174.5
3783,136.6
3786,133.8
3788,130.3
3789,164.0
3791,120.5
3792,153.6
3793,129.1
3795,117.9
3796,127.8
3797,173.1
3799,148.8
3800,143.1
3801,178.8
3804,144.6
3805,120.5
3806,157.4
3808,145.0
3809,183.0
3813,138.1
3814,165.6
3818,147.1
3819,174.5
3820,121.5
3824,117.0
3825,150.9
3826,163.1
3828,129.1
3829,169.8
3830,144.5
3834,134.1
3838,179.9
3840,169.3
3843,139.4
3844,154.3
3847,165.2
3848,182.7
3849,132.7
3853,150.7
3854,146.9
3856,126.5
3860,142.4
3861,157.6
3863,172.2
3866,124.9
3867,125.7
3868,157.4
3871,127.6
3872,122.8
3874,154.2
3875,151.9
3876,136.6
3880,152.2
3881,136.8
3882,156.3
3885,114.3
3886,135.5
3888,163.7
3889,159.9
3892,182.0
3893,136.8
3895,130.6
3897,176.3
3898,135.0
3899,147.8
3900,168.8
3902,165.1
3904,149.8
3905,167.7
3907,172.2
3909,150.6
3910,182.9
3911,134.0
3916,142.8
3917,147.1
3918,169.5
3920,120.1
3923,169.1
3926,111.3
3927,148.1
3929,139.8
3931,142.0
3935,119.4
3937,153.8
3941,122.6
3943,142.0
3944,132.9
3947,126.3
3954,168.5
3955,136.8
3956,175.6
3957,165.3
3958,116.0
3960,153.9
3962,122.7
3964,121.9
3968,162.5
3971,123.8
3978,136.3
3979,166.6
3980,147.1
3985,150.0
3989,136.5
3990,169.7
3993,131.7
3994,180.0
3995,140.4
3997,166.8
3998,184.2
3999,143.5
4001,151.4
4002,124.2
4003,167.0
4005,165.1
4006,176.1
4007,158.5
4008,116.8
4012,180.9
4015,169.5
4016,128.4
4018,160.0
4019,130.5
4020,131.6
4023,153.0
4027,154.6
4030,149.7
4032,169.1
4034,155.4
4035,159.1
4036,139.6
4039,172.4
4040,143.3
4042,149.7
4047,120.1
4050,139.9
4053,129.7
4054,172.3
4056,134.2
4059,135.7
4064,172.9
4066,182.2
4067,137.1
4068,157.4
4069,124.6
4077,115.0
4079,172.7
4080,149.7
4084,158.5
4087,111.4
4091,127.4
4092,139.4
4093,115.6
4094,165.3
4098,116.3
4101,126.5
4103,137.8
4104,125.1
4105,170.2
4108,156.4
4111,120.1
4112,132.3
4114,144.8
4116,116.5
4117,157.4
4120,154.4
4121,138.7
4125,110.4
4127,113.5
4130,149.7
4133,182.4
4139,179.9
4141,120.8
4142,146.4
4143,154.8
4147,112.8
4155,147.1
4159,140.0
4160,140.0
4167,165.1
4168,179.3
4173,166.1
4174,172.3
4176,114.1
4179,152.2
4181,183.2
4182,175.3
4183,139.3
4188,126.4
4190,149.4
4191,180.5
4192,110.8
4193,136.8
4199,152.9
4200,127.1
4202,123.0
4204,130.4
4205,170.2
4209,116.8
4211,172.0
4212,159.4
4213,174.3
4216,160.5
4217,160.0
4218,125.4
4220,175.1
4227,124.9
4228,140.8
4229,110.9
4230,152.2
4234,180.3
4236,156.3
4237,131.2
4238,117.0
4240,142.6
4241,120.3
4242,162.5
4244,125.0
4245,117.4
4246,136.2
4254,177.5
4255,142.0
4258,131.6
4259,178.7
4260,124.7
4261,123.4
4263,145.2
4264,177.1
4265,149.3
4268,154.8
4269,145.7
4272,141.5
4273,178.9
4274,112.4
4280,144.5
4281,174.4
4282,125.6
4283,128.8
4284,131.9
4285,156.8
4286,113.4
4287,130.8
4288,142.1
4289,115.2
4291,134.6
4292,139.4
4293,135.5
4294,148.4
4297,143.1
4298,184.9
4299,172.7
4301,147.1
4304,172.8
4306,156.2
4307,124.2
4308,132.5
4309,123.7
4311,176.2
4317,160.0
4318,131.5
4321,126.4
4322,133.1
4323,167.9
4324,115.8
4326,147.2
4328,126.4
4329,135.9
4330,144.5
4333,168.6
4334,169.7
4336,147.6
4338,139.2
4339,129.2
4342,165.1
4345,152.8
4346,184.8
4347,122.4
4348,175.6
4350,168.0
4351,137.7
4353,126.9
4354,173.2
4355,149.7
4357,120.3
4359,152.0
4360,113.1
4361,161.6
4364,123.0
4366,148.7
4367,162.5
4368,165.0
4371,130.0
4373,159.0
4379,152.2
4380,183.4
4385,110.2
4389,135.4
4390,147.6
4391,135.3
4392,142.0
4394,176.4
4395,146.1
4397,180.8
4398,123.1
4404,139.3
4405,172.8
4406,130.9
4408,134.1
4411,154.2
4414,111.2
4417,160.0
4422,169.9
4423,153.6
4426,126.5
4429,147.1
4432,150.0
4434,129.6
4440,142.1
4442,167.7
4443,132.9
4445,173.5
4450,157.6
4451,165.3
4454,132.0
4455,149.7
4456,144.2
4459,181.7
4460,149.2
4461,130.7
4463,144.3
4467,149.7
4472,139.7
4474,138.1
4480,139.4
4486,150.7
4487,143.9
4488,158.9
4489,174.2
4490,175.9
4491,129.2
4492,131.7
4493,141.1
4497,145.1
4498,161.0
4499,139.1
4500,127.5
4502,151.5
4503,170.7
4504,170.2
4505,182.4
4510,115.0
4511,159.4
4515,176.2
4516,157.4
4518,116.5
4519,138.0
4520,148.8
4522,155.7
4523,112.5
4525,114.5
4526,144.0
4527,179.3
4528,122.5
4530,139.4
4532,173.2
4534,110.8
4536,148.8
4537,135.1
4538,162.3
4539,158.7
4540,172.8
4542,162.5
4543,138.9
4544,131.8
4547,127.7
4549,140.9
4550,176.2
4553,112.5
4554,160.0
4555,177.5
4557,127.1
4558,128.6
4559,130.0
4562,141.9
4564,148.2
4565,125.8
4567,162.5
4568,139.7
4569,158.3
4571,159.9
4572,111.7
4575,140.3
4576,162.6
4577,176.6
4579,154.8
4580,119.0
4585,180.0
4586,123.7
4590,123.8
4592,142.0
4593,140.8
4600,174.3
4603,178.3
4604,170.2
4605,158.2
4608,168.2
4611,156.1
4612,167.8
4616,143.9
4617,160.0
4618,158.5
4620,142.3
4621,126.4
4622,167.0
4623,160.7
4624,170.6
4626,113.5
4627,145.3
4628,125.4
4629,142.0
4632,141.1
4634,132.9
4636,171.0
4637,162.2
4639,162.0
4640,175.1
4641,172.8
4642,147.8
4643,146.1
4645,140.0
4647,165.6
4649,133.6
4653,184.6
4654,134.2
4655,154.8
4657,111.6
4658,160.3
4665,132.7
4666,120.4
4667,152.2
4668,172.1
4669,162.1
4670,114.4
4671,158.6
4672,152.1
4674,167.4
4677,167.4
4678,150.9
4679,144.5
4681,140.1
4682,164.2
4683,112.2
4685,139.3
4689,124.0
4691,134.2
4694,114.6
4698,115.2
4699,167.2
4700,153.3
4701,182.2
4704,162.5
4706,177.2
4708,111.1
4710,124.4
4711,170.7
4713,153.6
4715,167.5
4716,154.8
4718,148.2
4719,156.2
4721,160.5
4723,152.5
4724,150.2
4726,122.0
4729,144.5
4730,119.0
4731,121.5
4732,162.7
4733,182.4
4734,167.7
4739,167.9
4740,127.5
4742,175.4
4743,116.8
4746,165.3
4752,179.2
4754,157.4
4756,150.0
4759,171.7
4764,133.1
4766,154.8
4768,129.7
4769,140.4
4770,131.9
4771,112.3
4772,163.8
4773,154.4
4774,161.5
4775,159.9
4779,154.8
4781,182.9
4782,116.5
4783,167.8
4785,181.8
4787,132.7
4788,184.2
4789,155.1
4791,111.4
4792,144.5
4793,131.2
4796,168.1
4797,155.8
4798,141.4
4799,112.0
4800,138.5
4801,123.5
4803,156.3
4804,167.7
4805,171.5
4807,142.9
4808,110.1
4810,129.4
4811,155.5
4812,122.2
4813,185.0
4814,127.4
4816,154.8
4817,178.4
4824,165.7
4825,130.8
4826,169.0
4827,170.9
4828,162.3
4829,139.4
4835,168.7
4836,162.0
4838,171.7
4841,170.2
4842,115.7
4844,164.4
4846,118.4
4847,145.4
4849,174.5
4851,110.4
4854,165.1
4855,157.6
4856,181.5
4857,130.3
4859,126.6
4867,149.7
4870,118.5
4871,176.2
4872,149.6
4874,174.8
4875,166.9
4876,179.1
4879,154.8
4880,117.7
4883,158.8
4884,128.9
4887,167.9
4888,179.1
4889,159.4
4891,136.8
4892,177.6
4896,159.1
4898,117.0
4901,110.1
4902,180.5
4903,162.5
4905,168.1
4907,118.6
4910,114.1
4912,154.9
4913,121.7
4915,157.3
4916,152.2
4919,113.2
4921,176.0
4922,125.3
4925,148.5
4927,150.5
4929,144.5
4932,148.8
4937,177.4
4939,182.1
4941,178.0
4942,114.9
4943,122.0
4945,121.3
4947,122.4
4948,180.9
4949,151.3
4954,160.0
4958,158.8
4959,167.8
4960,172.5
4962,173.2
4965,134.5
4966,142.0
4970,181.0
4971,159.5
4972,111.4
4973,121.0
4978,152.2
4983,148.1
4985,153.5
4987,135.4
4988,152.4
4990,158.1
4992,147.1
4993,145.0
4997,130.7
4999,115.6
5000,150.5
5004,165.1
5009,141.7
5011,154.4
5016,149.7
5021,118.4
5027,155.0
5028,134.2
5029,177.1
5030,174.4
5031,122.9
5032,145.4
5033,139.4
5034,111.2
5038,112.5
5039,120.0
5041,167.7
5042,111.3
5045,156.9
5048,144.2
5051,157.7
5052,170.3
5054,160.0
5056,184.6
5060,141.6
5062,160.4
5063,176.2
5064,131.0
5066,147.1
5067,126.4
5068,170.2
5072,138.6
5073,158.8
5075,158.1
5076,135.1
5079,160.0
5082,149.1
5085,171.6
5088,146.3
5089,110.4
5091,139.4
5094,123.4
5097,165.2
5098,132.1
5100,159.6
5101,159.3
5103,152.2
5104,132.4
5114,159.3
5115,142.0
5119,138.0
5120,140.6
5121,111.4
5125,116.8
5129,136.8
5132,179.5
5139,181.8
5141,172.8
5142,144.4
5145,128.6
5146,123.7
5147,178.2
5149,152.7
5152,140.4
5153,162.5
5156,171.2
5158,162.8
5159,128.7
5166,142.0
5170,138.3
5171,167.1
5173,110.1
5178,157.4
5179,178.9
5182,132.0
5183,138.2
5185,120.0
5186,167.4
5187,161.7
5189,113.2
5190,136.6
5191,144.5
5193,162.4
5197,141.9
5199,147.6
5201,115.9
5202,150.0
5203,160.0
5204,143.0
5206,137.5
5207,180.6
5209,161.0
5212,182.8
5213,175.5
5214,172.0
5216,152.2
5217,130.4
5218,175.8
5219,148.3
5221,121.0
5225,136.4
5226,163.8
5228,139.4
5229,143.9
5231,147.4
5233,148.8
5234,130.7
5240,170.2
5245,163.4
5246,140.8
5247,184.9
5250,182.1
5251,127.3
5252,112.9
5254,157.4
5256,140.2
5264,144.8
5265,168.2
5266,142.0
5267,182.8
5268,140.6
5269,153.9
5270,119.7
5272,153.6
5274,152.5
5276,146.3
5278,162.5
5279,178.4
5281,176.6
5284,177.9
5285,120.1
5286,113.8
5290,129.2
5291,154.8
5292,155.4
5293,139.0
5298,122.4
5299,140.8
5300,156.5
5303,154.8
5304,110.8
5310,141.3
5311,115.5
5312,144.0
5314,179.9
5315,144.5
5316,153.8
5317,123.3
5318,176.9
5319,138.3
5320,183.9
5323,178.2
5324,181.1
5328,134.2
5331,159.3
5335,121.6
5341,170.2
5342,178.6
5345,155.2
5346,181.4
5348,151.1
5349,126.2
5353,160.0
5354,166.4
5357,165.1
5358,174.9
5360,140.0
5361,148.6
5362,163.3
5365,147.1
5366,143.8
5367,124.0
5368,178.7
5370,142.5
5375,132.6
5378,172.8
5379,128.5
5381,149.4
5382,113.7
5383,181.1
5385,170.6
5386,177.1
5387,171.0
5389,117.2
5391,154.8
5395,125.0
5397,149.6
5403,149.7
5404,124.2
5409,167.3
5413,116.3
5415,147.1
5416,184.3
5421,140.2
5423,112.2
5424,177.3
5428,144.5
5429,131.7
5430,113.7
5431,183.4
5436,162.4
5438,179.7
5440,172.8
5442,121.0
5445,156.3
5447,166.0
5448,115.1
5449,169.4
5451,165.6
5453,157.4
5455,159.6
5456,174.0
5457,175.3
5460,164.8
5462,152.3
5463,126.3
5464,118.9
5465,125.3
5466,139.4
5467,170.9
5472,147.2
5475,121.4
5476,157.7
5478,165.1
5479,150.8
5480,119.9
5481,154.4
5482,150.5
5486,158.3
5487,172.5
5488,138.8
5490,160.0
5491,122.0
5492,168.9
5495,180.5
5496,120.2
5498,178.1
5499,134.7
5502,152.2
5503,182.7
5504,158.7
5505,114.2
5506,123.7
5507,135.3
5510,127.4
5512,152.8
5514,146.3
5515,147.1
5519,142.0
5522,155.6
5525,170.0
5527,156.7
5528,136.8
5532,129.6
5534,177.9
5536,140.1
5537,178.7
5538,152.6
5540,167.7
5542,183.3
5548,168.3
5552,179.1
5553,157.4
5556,183.4
5558,112.5
5560,184.1
5561,137.8
5563,150.0
5565,147.1
5567,176.0
5570,116.4
5571,159.4
5572,128.5
5576,180.1
5577,178.0
5578,143.6
5579,140.6
5580,117.5
5582,149.5
5583,152.9
5585,183.4
5586,121.5
5587,167.3
5588,178.7
5591,162.5
5597,158.1
5600,167.8
5601,173.7
5602,110.5
5603,149.7
5604,128.6
5606,180.5
5608,146.8
5609,119.0
5610,122.3
5613,126.9
5614,115.4
5615,149.7
5618,124.6
5619,159.5
5622,133.7
5625,140.4
5626,111.0
5627,139.4
5628,147.2
5629,147.2
5631,158.2
5632,115.5
5633,184.3
5637,136.2
5638,126.9
5639,116.5
5640,170.2
5641,153.2
5642,159.7
5644,182.4
5645,121.0
5647,135.0
5650,156.7
5652,172.7
5653,157.4
5654,154.8
5656,115.3
5657,124.9
5658,146.3
5659,125.7
5661,113.0
5662,132.4
5665,142.0
5670,123.8
5671,132.0
5672,184.7
5674,130.6
5675,143.6
5676,151.2
5678,170.2
5682,110.0
5683,130.3
5686,142.3
5689,143.3
5690,154.8
5691,181.9
5692,141.2
5693,119.7
5695,126.9
5697,184.0
5699,179.2
5700,176.4
5702,147.1
5710,161.9
5711,145.3
5712,134.1
5714,154.8
5715,168.3
5717,155.6
5718,169.0
5719,157.2
5721,183.3
5722,161.6
5725,174.0
5726,183.1
5728,136.8
5730,116.7
5731,162.1
5732,182.1
5736,122.5
5738,150.4
5740,157.4
5741,136.0
5745,130.1
5746,138.8
5750,182.9
5752,144.5
5753,112.8
5755,171.0
5756,151.9
5758,136.6
5760,110.1
5763,136.0
5764,165.6
5765,147.1
5766,164.7
5768,170.6
5770,134.1
5772,172.6
5775,129.5
5777,180.5
5780,163.9
5782,156.4
5784,160.2
5785,128.7
5789,160.0
5790,162.5
5793,179.1
5794,113.5
5796,146.9
5798,145.5
5800,113.8
5801,110.8
5803,147.1
5804,128.4
5805,172.2
5807,110.9
5811,133.4
5814,177.0
5815,152.2
5816,118.8
5821,130.7
5822,111.4
5824,167.1
5825,155.3
5826,169.1
5827,142.0
5829,150.9
5834,123.4
5835,170.3
5838,111.8
5839,160.0
5840,125.7
5841,138.7
5842,167.7
5843,167.5
5847,165.4
5849,113.0
5851,148.5
5852,178.7
5853,149.7
5855,150.8
5856,140.0
5857,181.1
5859,157.1
5863,162.0
5865,136.8
5868,111.6
5870,143.4
5871,150.5
5873,121.4
5874,134.1
5877,170.2
5879,155.6
5881,135.3
5884,182.8
5886,138.7
5890,160.0
5891,161.9
5893,163.2
5895,125.5
5900,125.3
5901,127.8
5902,147.1
5903,164.1
5904,119.9
5905,114.2
5906,124.2
5913,183.9
5914,162.5
5915,132.5
5919,173.8
5925,147.7
5926,148.0
5927,152.2
5933,114.0
5934,167.6
5935,142.4
5938,113.2
5940,160.0
5944,164.0
5945,155.4
5946,146.2
5947,182.7
5948,154.7
5949,113.1
5951,161.0
5952,144.5
5955,118.8
5959,162.4
5962,116.9
5963,172.9
5964,134.2
5965,171.7
5968,157.2
5970,183.4
5971,174.9
5973,115.9
5976,125.0
5977,170.2
5984,174.2
5986,120.9
5989,139.2
5990,167.7
5991,117.5
5993,135.1
5994,130.7
5995,135.4
5996,113.5
5997,122.2
5999,140.0
6000,124.0
6001,118.9
6002,149.7
6003,154.5
6004,140.2
6014,165.1
6017,132.1
6019,144.1
6021,161.3
6022,184.1
6024,121.0
6027,144.5
6028,133.5
6030,155.0
6031,145.3
6032,110.5
6034,145.8
6039,149.7
6041,130.4
6042,163.3
6043,132.2
6045,164.5
6046,181.9
6048,114.3
6050,149.9
6051,176.9
6052,144.5
6053,167.9
6055,178.9
6056,177.2
6058,116.0
6059,166.3
6060,131.7
6063,165.9
6064,171.7
6065,139.4
6066,152.9
6067,164.7
6068,153.2
6069,141.6
6070,169.5
6071,170.3
6073,184.8
6075,119.9
6077,170.2
6079,140.6
6081,128.6
6083,162.7
6086,153.2
6087,179.2
6089,154.8
6092,137.2
6093,183.2
6096,120.3
6097,138.8
6099,165.5
6102,134.2
6103,132.6
6108,119.7
6112,146.5
6113,151.7
6114,157.4
6117,143.6
6118,126.2
6120,139.1
6122,140.1
6123,134.8
6127,149.7
6128,170.9
6129,139.5
6131,113.1
6132,139.7
6139,152.2
6142,142.5
6143,110.6
6147,113.3
6148,164.8
6149,176.5
6152,144.5
6154,116.6
6155,157.5
6157,129.9
6164,131.7
6165,110.6
6168,150.9
6169,119.1
6171,174.5
6173,154.0
6175,154.4
6176,162.5
6178,184.1
6179,114.4
6180,165.6
6185,157.9
6188,120.7
6190,152.2
6191,120.1
6194,155.6
6197,135.4
6198,161.6
6200,167.6
6201,144.5
6202,147.1
6203,137.8
6208,145.1
6211,154.8
6214,170.2
6215,127.3
6218,118.4
6219,158.7
6222,124.0
6223,139.4
6224,113.7
6226,154.8
6229,163.7
6230,142.3
6231,120.0
6234,182.5
6239,147.1
6240,136.2
6249,171.1
6252,142.0
6255,147.0
6257,132.1
6258,134.1
6260,170.8
6261,183.6
6262,154.3
6263,120.3
6264,134.2
6265,133.9
6266,166.0
6269,182.2
6271,131.1
6277,165.1
6284,131.4
6285,134.7
6286,148.5
6288,119.3
6289,154.8
6290,111.2
6291,152.1
6292,163.9
6293,154.6
6294,136.1
6295,136.3
6298,125.9
6300,176.5
6301,136.8
6311,173.4
6313,170.2
6314,167.2
6315,139.9
6316,140.5
6321,175.0
6322,154.8
6324,161.4
6327,157.4
6331,121.2
6332,147.0
6333,147.1
6334,133.6
6335,140.6
6339,152.2
6343,110.9
6346,182.7
6351,149.7
6353,140.6
6354,170.8
6355,173.0
6357,133.2
6359,141.7
6361,143.6
6362,132.2
6364,142.0
6365,174.8
6368,121.6
6369,141.6
6371,179.1
6372,111.2
6374,124.8
6375,170.0
6376,167.7
6377,114.7
6378,147.8
6379,112.0
6382,138.1
6386,124.9
6387,110.3
6388,143.1
6389,154.8
6390,161.0
6392,157.6
6394,116.8
6395,147.3
6396,117.0
6397,141.7
6398,136.0
6399,143.0
6400,114.6
6401,119.7
6402,136.8
6406,129.2
6407,115.6
6414,170.2
6416,128.4
6422,134.5
6424,143.2
6426,165.1
6430,129.9
6431,163.2
6432,182.6
6433,164.9
6435,137.4
6436,117.3
6438,149.7
6439,170.9
6440,162.1
6441,184.1
6442,145.1
6443,114.1
6444,164.2
6445,119.2
6447,180.0
6448,116.0
6452,149.7
6454,158.2
6455,149.4
6456,153.2
6457,139.8
6458,182.3
6464,134.2
6465,180.3
6466,173.6
6467,140.3
6468,126.1
6473,134.8
6476,157.4
6479,176.4
6480,151.5
6482,124.6
6483,134.2
6485,155.5
6486,129.8
6487,160.3
6489,149.7
6490,144.5
6491,151.0
6493,110.5
6494,161.5
6495,113.7
6496,123.9
6499,128.2
6501,142.0
6504,166.0
6505,145.9
6507,145.6
6510,164.8
6511,150.7
6512,128.3
6513,172.8
6514,110.4
6515,158.2
6521,152.3
6523,122.3
6525,155.3
6526,157.4
6527,142.4
6528,128.1
6529,124.2
6531,171.3
6533,161.8
6534,155.3
6537,145.9
6539,139.4
6540,169.0
6545,120.0
6547,152.4
6548,174.5
6551,147.1
6552,131.7
6554,113.0
6555,175.1
6559,179.1
6561,134.2
6562,167.2
6563,139.4
6565,171.2
6566,180.1
6567,177.2
6568,144.5
6571,156.3
6572,154.5
6573,124.0
6576,157.4
6578,122.4
6579,145.5
6585,127.8
6586,180.0
6587,122.0
6588,164.1
6589,147.1
6590,175.1
6591,158.9
6596,113.5
6598,127.9
6599,123.7
6600,153.1
6601,134.2
6602,128.9
6603,184.4
6604,114.9
6608,156.3
6611,127.1
6614,167.7
6618,169.9
6622,148.7
6624,132.0
6626,157.4
6628,125.9
6630,132.3
6634,159.5
6635,155.3
6636,149.4
6637,176.7
6638,147.1
6641,110.7
6642,160.5
6644,134.9
6645,134.1
6647,116.3
6649,173.2
6650,161.8
6651,160.0
6654,119.5
6655,139.2
6656,178.6
6657,143.2
6658,142.7
6659,161.7
6660,156.7
6663,125.1
6664,139.4
6665,182.0
6666,119.3
6668,110.3
6670,172.4
6672,169.1
6674,183.9
6675,126.0
6676,154.8
6677,121.6
6679,168.0
6681,142.4
6685,156.9
6688,144.5
6690,168.4
6691,178.5
6696,147.0
6698,145.1
6700,126.4
6701,136.8
6705,180.4
6708,141.1
6711,164.4
6713,172.8
6714,162.5
6719,112.5
6722,139.9
6724,179.6
6725,164.8
6726,162.5
6729,112.1
6731,170.2
6732,110.3
6733,151.9
6734,113.9
6738,142.0
6740,138.4
6744,112.6
6746,156.1
6747,122.7
6748,147.8
6750,132.8
6751,157.4
6752,157.3
6753,116.4
6762,171.8
6763,136.8
6764,158.0
6765,169.3
6768,132.3
6771,114.0
6774,177.3
6775,152.2
6777,130.3
6778,160.7
6779,175.1
6781,145.5
6782,166.9
6786,148.0
6788,142.1
6789,144.5
6791,141.5
6794,137.8
6795,179.5
6798,173.1
6799,142.2
6800,122.0
6801,136.8
6803,173.2
6805,128.4
6808,140.4
6810,170.4
6813,167.7
6818,159.7
6820,136.8
6821,173.5
6822,170.7
6823,140.3
6824,181.6
6825,157.4
6830,129.7
6831,140.9
6838,142.0
6839,115.3
6841,153.0
6842,130.0
6844,154.6
6846,158.4
6847,125.7
6850,149.2
6851,162.5
6852,126.3
6853,154.0
6857,167.8
6860,161.0
6861,166.1
6862,172.9
6863,152.2
6867,163.1
6868,173.2
6872,154.9
6875,115.8
6876,154.8
6877,154.9
6878,163.0
6879,142.0
6882,154.2
6888,142.0
6890,156.5
6892,133.6
6894,133.5
6895,175.0
6896,154.8
6898,170.0
6900,131.7
6901,125.6
6903,171.8
6904,168.1
6905,142.7
6906,126.2
6908,119.9
6911,126.7
6913,167.7
6914,154.3
6915,177.0
6916,117.6
6917,117.6
6918,163.9
6920,153.9
6922,180.1
6923,150.0
6924,158.8
6926,160.0
6930,159.5
6933,178.3
6934,134.7
6935,131.6
6936,180.0
6937,127.1
6938,144.5
6939,111.2
6942,162.5
6944,123.7
6946,143.8
6947,165.6
6949,184.1
6950,165.1
6951,175.7
6952,120.3
6954,124.5
6956,154.4
6957,149.8
6959,178.7
6960,180.4
6961,132.5
6963,152.2
6968,172.0
6969,179.7
6971,122.1
6972,139.8
6973,144.6
6974,147.8
6975,147.1
6976,146.9
6977,173.5
6979,168.1
6983,149.5
6988,139.4
6990,178.2
6993,119.7
6995,143.8
6996,158.2
7000,158.7
7001,134.2
7006,114.3
7008,159.3
7010,182.9
7011,131.8
7013,165.1
7015,139.1
7016,113.7
7019,162.3
7021,184.1
7025,152.2
7026,125.0
7028,164.3
7033,153.2
7035,137.8
7037,136.8
7038,132.9
7039,166.1
7040,153.1
7042,150.2
7043,175.2
7045,130.3
7049,111.8
7051,162.5
7052,161.0
7054,148.6
7056,161.5
7063,152.2
7066,156.8
7068,152.6
7069,169.8
7071,124.5
7072,160.9
7073,128.1
7074,110.3
7075,157.4
7080,156.6
7083,178.9
7084,121.6
7088,152.2
7089,139.6
7091,118.9
7093,173.0
7098,114.5
7100,134.2
7101,176.0
7102,141.3
7108,138.8
7109,119.9
7110,117.4
7112,162.5
7116,134.2
7118,177.6
7119,164.9
7125,161.3
7126,152.2
7130,140.5
7131,130.8
7132,147.4
7133,179.5
7135,181.0
7136,134.2
7137,166.4
7138,139.4
7139,136.9
7140,147.0
7142,117.5
7143,182.5
7145,129.1
7147,142.3
7148,110.4
7149,113.9
7150,170.2
7151,149.3
7152,135.3
7153,169.0
7154,141.1
7155,149.8
7158,120.0
7162,157.4
7165,161.2
7166,136.8
7167,141.1
7170,136.5
7171,134.4
7172,121.5
7174,176.9
7175,147.1
7176,174.6
7177,129.5
7178,167.7
7179,154.2
7180,145.4
7185,132.2
7186,120.8
7188,147.1
7192,173.6
7193,125.1
7196,149.7
7200,134.2
7203,178.4
7204,184.9
7208,111.3
7209,168.2
7210,172.7
7212,171.5
7213,162.5
7219,175.0
7220,164.8
7221,143.9
7222,181.9
7223,140.6
7225,152.2
7226,113.4
7229,156.7
7230,170.7
7231,130.1
7232,178.7
7234,148.5
7237,142.0
7239,140.8
7241,123.0
7245,169.8
7246,135.0
7248,113.6
7250,172.8
7254,155.9
7256,150.1
7257,112.3
7261,155.7
7262,175.4
7263,157.4
7264,166.0
7268,125.9
7269,160.1
7272,110.9
7274,167.8
7275,144.5
7276,157.8
7278,171.8
7282,145.7
7283,146.4
7285,173.3
7286,171.6
7287,147.1
7294,153.2
7296,146.5
7297,173.1
7299,135.2
7300,147.1
7301,121.5
7304,130.2
7305,125.7
7306,139.2
7308,130.3
7310,111.0
7311,133.8
7312,162.5
7315,113.2
7316,125.3
7317,166.5
7318,138.3
7321,161.8
7323,132.4
7324,148.2
7325,149.7
7327,183.8
7329,153.0
7330,147.4
7332,157.9
7334,126.7
7337,134.2
7338,128.8
7339,111.4
7340,135.3
7345,172.1
7346,167.1
7347,113.4
7348,159.3
7350,170.2
7351,142.4
7353,122.6
7356,156.3
7357,130.3
7359,158.8
7361,170.7
7362,162.5
7366,113.3
7367,127.5
7368,116.8
7369,178.4
7373,155.0
7374,149.7
7381,167.2
7382,134.9
7388,154.8
7389,131.0
7392,173.1
7393,111.3
7394,124.3
7395,133.4
7397,113.1
7399,117.2
7400,139.4
7401,165.8
7403,159.9
7409,145.3
7410,149.9
7412,154.8
7413,144.5
7415,155.7
7416,181.7
7417,118.5
7418,133.2
7419,148.5
7420,141.9
7421,130.0
7423,178.2
7425,139.4
7428,149.2
7430,121.9
7431,110.3
7434,149.1
7437,136.8
7446,164.3
7450,170.2
7451,172.9
7452,134.0
7454,158.1
7459,175.5
7461,162.2
7462,157.4
7463,170.4
7464,130.7
7466,152.8
7467,121.9
7470,158.5
7475,139.4
7476,126.5
7481,182.8
7484,142.2
7487,154.8
7488,165.3
7489,137.0
7495,151.1
7498,163.7
7499,142.0
7505,166.8
7507,122.4
7508,141.5
7510,146.0
7511,179.6
7512,160.0
7516,125.7
7517,173.7
7524,143.3
7525,154.8
7526,162.5
7529,138.8
7531,123.6
7533,154.3
7537,136.8
7540,159.3
7541,158.2
7542,161.1
7544,137.9
7549,167.7
7550,183.6
7554,149.7
7556,177.0
7558,167.3
7561,145.2
7562,157.4
7563,147.5
7567,132.1
7571,121.0
7574,144.5
7575,138.6
7576,137.1
7579,135.5
7581,133.4
7582,156.7
7583,154.5
7584,111.8
7585,141.5
7587,162.5
7589,121.5
7590,120.0
7591,164.4
7592,126.5
7595,145.5
7596,143.8
7597,147.7
7599,153.4
7600,147.1
7602,183.6
7605,176.3
7607,127.1
7608,160.9
7609,153.0
7612,152.2
7613,112.7
7615,170.9
7618,167.2
7619,142.1
7621,171.8
7624,142.0
7625,175.5
7626,163.6
7630,157.1
7634,143.6
7635,160.3
7636,126.5
7637,151.4
7638,170.7
7639,183.8
7640,153.6
7641,162.7
7643,115.3
7646,169.3
7647,141.6
7648,133.5
7649,125.2
7650,162.5
7653,149.4
7655,184.2
7656,175.9
7659,150.8
7660,156.8
7661,113.0
7662,154.8
7665,143.9
7666,125.8
7670,148.6
7672,136.5
7674,142.0
7675,114.9
7676,147.1
7677,114.4
7682,153.6
7684,137.7
7685,184.1
7686,167.2
7687,160.0
7690,157.0
7691,122.6
7692,172.0
7693,125.8
7694,129.8
7695,148.4
7697,140.8
7698,149.4
7699,144.5
7700,174.6
7701,182.0
7704,161.4
7706,139.9
7709,121.3
7711,147.1
7712,154.5
7715,161.1
7716,123.5
7717,180.2
7721,169.0
7724,155.2
7725,139.4
7729,157.4
7730,135.0
7733,116.6
7734,175.9
7736,151.0
7737,139.4
7738,121.6
7740,152.5
7742,169.2
7743,149.2
7744,139.0
7746,159.2
7749,170.2
7750,167.2
7754,148.3
7755,120.0
7758,170.6
7759,158.7
7761,154.8
7762,146.6
7764,178.7
7766,139.1
7768,167.0
7769,182.4
7772,112.7
7774,134.2
7777,118.9
7778,144.1
7783,119.9
7785,146.1
7787,160.0
7788,121.0
7789,151.6
7792,139.1
7793,155.5
7794,127.3
7795,130.6
7796,163.0
7798,159.7
7799,152.2
7800,173.7
7802,159.6
7803,155.6
7804,144.1
7806,113.5
7807,163.5
7808,113.3
7812,154.8
7814,146.8
7823,144.5
7824,144.5
7826,156.1
7828,174.7
7830,168.7
7832,174.9
7836,131.7
7839,184.7
7842,124.3
7844,136.6
7846,143.5
7849,160.0
7851,170.0
7852,143.2
7854,165.5
7855,167.4
7860,173.0
7862,149.7
7863,159.4
7865,176.0
7866,117.5
7868,134.7
7872,157.4
7873,161.1
7874,136.8
7875,167.6
7877,143.0
7881,177.9
7882,136.8
7884,158.3
7886,165.1
7891,149.4
7896,156.3
7897,160.7
7898,165.4
7899,157.4
7902,148.7
7903,163.3
7904,131.0
7906,113.4
7908,137.6
7910,148.2
7911,147.1
7912,125.7
7913,182.9
7914,133.4
7915,133.1
7916,146.3
7917,113.9
7918,179.0
7920,117.7
7922,121.4
7924,144.5
7925,127.0
7928,158.6
7930,134.2
7932,113.7
7933,140.0
7935,184.3
7937,131.7
7941,118.5
7942,157.1
7946,139.5
7948,180.1
7949,165.1
7950,150.0
7951,115.6
7952,112.8
7953,157.9
7956,175.9
7959,143.8
7960,143.5
7961,154.8
7962,114.0
7970,176.2
7971,127.4
7973,139.4
7974,183.0
7977,170.3
7978,157.1
7984,136.8
7985,148.4
7986,129.8
7987,167.7
7988,183.2
7989,153.1
7991,132.0
7993,178.6
7994,184.2
7995,171.5
7998,141.7
7999,152.2
8003,174.2
8008,181.5
8009,171.1
8010,115.0
8011,144.5
8013,126.3
8016,120.1
8017,133.9
8019,126.4
8020,147.4
8022,159.6
8024,149.7
8026,175.1
8029,136.6
8030,180.9
8031,137.5
8035,163.0
8036,139.4
8038,122.0
8040,178.3
8042,160.2
8043,159.7
8044,127.5
8045,148.2
8046,182.1
8047,168.1
8048,125.6
8049,160.0
8051,112.8
8053,152.4
8054,116.7
8057,151.9
8059,179.1
8060,159.6
8061,149.7
8062,158.2
8063,184.7
8065,127.0
8069,123.1
8074,136.8
8077,116.8
8078,174.1
8079,165.2
8080,115.2
8081,136.0
8086,170.2
8088,165.4
8089,150.3
8090,153.7
8091,169.8
8092,111.8
8093,145.0
8095,125.5
8096,131.9
8097,138.8
8098,160.0
8102,145.3
8103,129.1
8105,123.3
8108,119.2
8111,149.7
8112,165.7
8113,152.9
8115,150.9
8123,158.8
8124,152.2
8125,179.1
8128,146.5
8131,165.6
8132,179.3
8133,155.7
8134,141.9
8136,134.2
8137,143.1
8138,135.3
8142,181.1
8147,177.3
8148,154.8
8149,115.8
8150,159.8
8151,140.3
8153,151.4
8159,158.4
8161,147.1
8164,180.7
8166,176.8
8168,117.4
8169,169.1
8170,132.5
8171,130.5
8173,134.2
8175,146.0
8176,162.4
8180,114.4
8182,154.3
8184,171.3
8186,167.7
8187,125.3
8188,146.5
8191,143.7
8192,111.9
8197,184.7
8199,152.2
8200,154.4
8206,163.9
8208,119.4
8211,139.4
8213,140.4
8214,159.8
8218,184.8
8219,182.8
8220,167.8
8221,112.2
8223,147.1
8225,121.4
8227,182.1
8229,157.6
8231,182.7
8232,166.2
8236,142.0
8237,153.1
8238,158.4
8240,138.8
8243,171.4
8245,118.7
8247,176.8
8248,141.2
8249,160.0
8253,143.9
8255,119.2
8256,166.0
8258,184.2
8259,141.0
8261,144.5
8264,181.4
8266,110.1
8267,184.8
8268,166.0
8269,178.6
8270,130.8
8271,170.8
8273,134.2
8274,179.1
8276,120.1
8278,173.7
8280,119.6
8283,161.0
8285,183.4
8286,165.1
8287,130.1
8288,154.1
8291,113.0
8292,177.5
8295,125.7
8297,142.8
8298,152.2
8300,141.8
8302,126.6
8306,141.6
8307,136.9
8309,165.5
8310,139.4
8312,117.0
8313,174.8
8314,156.1
8315,134.6
8319,157.7
8320,130.7
8323,140.3
8324,154.8
8325,130.6
8327,112.0
8331,122.3
8334,128.4
8336,139.4
8339,174.4
8341,114.7
8342,132.8
8344,139.7
8345,137.0
8346,176.1
8347,120.5
8348,149.7
8351,170.7
8360,142.0
8365,171.0
8367,118.3
8370,138.8
8371,146.7
8372,119.6
8373,131.7
8374,126.4
8375,152.6
8377,168.7
8378,136.8
8379,177.8
8380,138.6
8383,155.9
8385,135.1
8386,165.1
8387,153.7
8390,121.8
8391,123.7
8396,161.4
8397,138.2
8398,149.7
8401,176.1
8402,170.9
8403,132.4
8404,113.4
8405,126.2
8407,174.4
8408,169.5
8409,171.1
8410,134.3
8411,131.7
8412,183.0
8413,165.7
8415,135.1
8416,114.8
8418,164.2
8420,125.6
8423,154.8
8425,180.3
8426,182.6
8427,168.5
8432,179.4
8434,129.2
8435,147.1
8436,151.2
8437,146.1
8438,123.5
8441,178.3
8443,127.2
8444,110.1
8446,145.2
8447,128.1
8448,127.5
8449,157.4
8451,129.0
8453,137.1
8455,138.3
8456,165.4
8457,116.3
8458,161.5
8460,131.9
8461,147.1
8463,172.2
8464,121.2
8465,117.0
8466,129.6
8467,168.6
8468,144.3
8471,148.8
8473,134.2
8476,154.2
8477,133.8
8478,114.8
8479,175.6
8485,165.1
8487,110.6
8489,111.0
8492,134.2
8494,128.3
8498,165.1
8499,147.2
8500,142.7
8502,117.1
8504,124.6
8506,162.4
8508,170.3
8510,147.1
8511,147.7
8517,114.5
8518,164.2
8521,150.2
8522,182.4
8523,170.2
8524,116.4
8528,125.5
8532,116.3
8534,116.9
8536,149.7
8538,114.9
8539,127.2
8541,146.1
8542,140.9
8543,157.3
8546,180.9
8548,149.7
8550,111.1
8551,169.9
8555,115.8
8556,144.2
8557,113.4
8559,160.4
8560,144.5
8561,157.3
8562,134.0
8563,132.6
8564,134.8
8567,144.1
8569,114.0
8572,136.8
8573,158.2
8577,158.9
8581,110.2
8583,174.8
8586,167.7
8587,171.6
8589,159.2
8590,128.3
8595,170.6
8596,115.4
8598,154.8
8599,180.7
8602,123.4
8606,165.7
8609,110.9
8610,136.8
8611,112.5
8613,123.9
8616,114.1
8617,181.9
8620,142.4
8621,135.1
8623,160.0
8626,158.5
8630,180.7
8632,178.2
8633,111.4
8635,147.1
8636,134.5
8638,172.3
8639,122.6
8640,165.6
8643,117.2
8644,169.1
8648,147.1
8650,112.0
8651,140.7
8652,112.8
8654,133.6
8660,144.5
8661,129.2
8664,165.4
8665,152.5
8666,111.4
8667,183.7
8669,140.1
8673,136.8
8674,177.0
8677,125.4
8684,165.5
8685,165.1
8686,120.5
8691,120.2
8693,120.2
8695,112.8
8697,152.2
8698,184.3
8703,127.4
8704,183.3
8705,119.8
8707,159.9
8708,113.5
8709,138.3
8710,139.4
8713,159.1
8716,117.2
8717,159.7
8719,156.0
8721,113.5
8722,115.7
8723,172.8
8726,166.9
8727,129.2
8728,133.0
8729,126.8
8732,117.6
8733,127.1
8735,162.5
8736,123.1
8743,123.6
8748,154.8
8750,138.4
8752,183.0
8755,169.7
8756,121.9
8759,165.0
8760,149.7
8761,129.1
8770,172.4
8771,140.9
8772,134.2
8774,131.2
8775,119.5
8776,132.8
8780,147.5
8782,132.4
8784,170.3
8785,160.0
8786,155.7
8789,142.1
8790,110.4
8791,129.8
8793,148.4
8794,142.2
8798,154.8
8799,130.1
8801,165.9
8806,164.7
8807,153.8
8808,136.7
8810,136.8
8811,142.8
8812,144.0
8813,160.3
8816,156.9
8819,175.0
8821,128.2
8822,167.7
8824,159.6
8826,151.3
8827,156.9
8829,123.3
8832,145.4
8833,127.4
8835,149.7
8836,140.4
8838,168.1
8840,135.1
8842,123.3
8846,138.8
8848,139.4
8849,182.0
8850,137.8
8853,134.9
8855,173.5
8857,130.1
8858,167.3
8859,139.3
8860,142.0
8861,121.8
8862,169.1
8866,175.4
8867,148.3
8870,156.5
8871,141.2
8872,134.2
8873,132.5
8874,130.0
8879,168.7
8880,137.7
8882,128.7
8883,173.7
8885,162.5
8888,162.3
8889,121.9
8891,175.9
8893,168.3
8894,181.2
8895,179.3
8896,139.5
8897,152.2
8898,164.0
8900,160.0
8902,135.4
8903,152.1
8907,162.4
8909,134.2
8911,162.5
8912,140.6
8921,167.1
8922,176.1
8923,170.2
8924,153.2
8926,176.6
8929,166.1
8932,121.6
8935,170.2
8937,125.2
8940,178.3
8942,166.6
8943,139.1
8944,179.3
8947,154.8
8958,121.3
8959,117.7
8960,157.4
8961,145.6
8970,121.7
8971,144.3
8972,136.8
8974,158.4
8975,180.1
8979,181.3
8984,165.9
8985,154.8
8986,151.0
8987,126.8
8990,130.4
8991,180.5
8993,131.5
8995,151.1
8996,147.5
8997,147.1
8999,142.2
9000,160.2
9004,112.0
9005,168.9
9007,139.5
9008,150.4
9010,139.4
9011,132.2
9012,145.3
9013,157.9
9015,156.2
9017,166.4
9019,166.9
9020,169.0
9021,115.8
9022,172.8
9024,117.2
9025,174.5
9026,160.5
9027,147.5
9029,117.6
9032,177.3
9034,154.8
9038,148.6
9041,124.8
9042,144.6
9043,112.2
9045,111.7
9046,170.5
9048,139.4
9049,145.5
9050,138.5
9053,145.4
9054,122.5
9055,172.3
9057,110.3
9059,117.2
9060,152.2
9070,150.2
9071,141.8
9072,142.0
9076,146.1
9077,151.5
9078,163.4
9081,151.7
9082,120.5
9084,157.4
9086,164.9
9087,153.0
9088,118.8
9089,183.4
9090,183.4
9092,139.9
9093,124.7
9094,167.6
9095,168.7
9097,149.7
9101,143.2
9102,123.8
9103,158.2
9104,172.9
9107,166.1
9110,136.8
9111,184.4
9118,157.5
9119,139.1
9121,162.7
9122,167.7
9123,135.8
9124,140.4
9125,178.8
9126,124.3
9127,118.2
9128,120.4
9129,179.8
9130,174.5
9135,154.8
9138,154.1
9143,177.4
9147,144.5
9148,110.9
9149,139.7
9151,152.9
9157,147.9
9158,159.9
9159,162.5
9161,184.5
9162,118.2
9167,158.2
9168,162.7
9169,138.7
9171,147.1
9172,131.9
9173,144.5
9181,156.5
9182,143.9
9183,160.4
9184,140.9
9185,154.8
9187,176.7
9188,126.8
9190,134.6
9191,155.0
9192,112.5
9195,181.7
9196,118.1
9197,144.5
9198,136.2
9200,168.0
9201,112.1
9204,140.1
9207,163.9
9209,131.7
9212,152.6
9215,130.4
9216,153.9
9218,167.1
9220,116.1
9221,127.0
9222,167.7
9227,130.4
9228,130.4
9232,145.7
9233,159.9
9234,160.0
9235,172.5
9236,159.3
9238,125.4
9239,161.4
9240,150.0
9241,117.5
9242,113.4
9247,139.4
9248,152.3
9254,169.8
9255,129.9
9256,164.6
9257,181.6
9259,174.9
9260,154.8
9263,147.0
9267,126.2
9268,115.5
9269,128.8
9271,150.8
9272,139.4
9275,117.8
9276,110.8
9277,131.2
9278,159.1
9280,154.3
9281,159.3
9282,167.9
9284,144.5
9285,113.6
9290,133.4
9291,177.4
9292,122.1
9296,139.4
9298,178.4
9300,121.3
9302,152.1
9303,176.1
9305,174.0
9310,136.8
9311,179.4
9313,140.3
9314,150.8
9315,112.5
9316,182.4
9317,175.7
9318,155.2
9321,128.5
9322,165.1
9323,120.8
9324,181.6
9327,167.7
9330,129.3
9332,177.1
9333,180.1
9334,152.2
9335,132.7
9337,129.6
9338,121.7
9339,114.5
9340,133.9
9344,115.6
9347,131.7
9349,114.6
9351,145.9
9352,183.8
9356,117.2
9357,172.8
9358,179.6
9359,157.4
9361,117.5
9362,179.1
9364,138.7
9367,116.0
9368,169.0
9370,117.4
9371,157.4
9377,162.6
9383,116.5
9384,154.8
9386,147.2
9388,125.2
9392,120.1
9393,162.9
9395,153.7
9396,133.2
9397,144.5
9398,173.6
9401,111.2
9402,120.2
9404,178.0
9406,160.2
9408,110.3
9409,131.7
9410,182.8
9411,149.1
9412,170.2
9413,116.6
9415,116.9
9417,119.9
9418,150.0
9420,173.8
9421,162.5
9430,132.4
9431,120.3
9432,146.3
9433,162.3
9434,154.8
9436,167.9
9439,155.6
9440,182.7
9441,145.7
9443,148.3
9444,146.8
9445,132.1
9446,142.2
9447,142.0
9451,155.4
9454,127.9
9455,169.1
9457,116.0
9458,178.8
9459,167.7
9462,147.4
9463,156.1
9465,118.3
9466,183.9
9468,119.2
9469,153.3
9470,131.5
9472,149.7
9476,128.7
9479,121.4
9482,136.1
9484,142.0
9485,175.8
9486,115.7
9487,127.8
9488,179.0
9489,126.3
9492,113.9
9496,139.4
9497,154.8
9498,142.5
9500,159.6
9504,139.1
9505,140.5
9508,134.2
9510,129.0
9513,135.8
9514,122.5
9515,134.2
9516,166.8
9519,147.3
9522,162.5
9524,133.4
9525,115.6
9526,120.4
9527,137.2
9528,146.5
9530,170.7
9532,180.1
9533,145.0
9534,152.2
9538,150.7
9541,162.9
9546,136.8
9547,130.7
9549,149.4
9553,178.2
9555,141.9
9556,155.3
9557,148.0
9559,165.1
9562,183.6
9565,154.8
9567,183.6
9570,112.3
9571,149.7
9575,117.9
9576,184.3
9579,162.6
9580,135.6
9581,143.9
9582,180.4
9584,149.7
9585,178.8
9589,125.6
9590,137.3
9594,147.9
9595,176.5
9596,152.2
9597,173.9
9598,123.8
9600,157.9
9604,116.5
9606,121.7
9609,134.2
9612,140.3
9613,167.0
9616,137.1
9618,137.5
9619,129.4
9621,157.4
9622,175.5
9623,145.7
9626,159.8
9628,116.2
9629,174.4
9633,147.1
9638,159.0
9640,130.6
9647,134.2
9648,172.9
9649,110.4
9650,171.4
9652,148.2
9654,181.7
9656,141.6
9657,123.5
9659,170.2
9663,113.0
9666,162.5
9667,143.4
9671,157.4
9674,170.6
9675,175.8
9678,110.3
9679,157.9
9680,171.0
9681,140.7
9682,155.0
9683,139.4
9684,160.4
9685,184.1
9686,170.3
9687,117.5
9688,120.2
9690,120.6
9695,145.4
9696,144.5
9697,122.6
9698,147.6
9703,118.3
9704,136.3
9708,139.4
9710,169.5
9712,122.1
9713,127.2
9714,151.4
9715,123.6
9716,151.7
9717,131.3
9718,150.2
9721,160.0
9722,145.3
9725,175.0
9730,149.5
9732,136.8
9733,155.4
9734,149.7
9735,154.7
9736,112.4
9738,130.5
9739,112.9
9740,166.3
9741,130.1
9746,139.4
9748,155.4
9750,118.7
9758,170.2
9759,138.0
9762,168.6
9764,162.8
9765,180.2
9766,136.0
9767,112.2
9769,174.0
9771,157.4
9772,168.1
9773,124.6
9775,182.5
9777,180.8
9779,179.6
9783,122.4
9784,142.0
9785,158.2
9787,154.4
9789,179.3
9790,110.6
9791,179.7
9792,131.7
9793,158.0
9794,180.2
9795,137.0
9796,154.8
9797,146.7
9799,183.5
9801,154.9
9805,144.8
9807,128.0
9808,139.4
9809,119.6
9810,150.5
9812,173.9
9813,111.8
9814,132.5
9815,156.7
9817,178.3
9820,163.4
9821,149.7
9823,134.7
9824,132.6
9826,156.0
9829,175.4
9830,119.5
9831,167.2
9833,139.4
9837,167.1
9838,117.2
9839,159.2
9842,131.6
9843,151.7
9845,170.0
9846,131.7
9851,131.6
9852,176.3
9853,119.7
9854,112.7
9856,116.4
9858,148.2
9859,170.2
9862,151.7
9863,155.8
9864,111.7
9866,126.7
9869,135.8
9871,157.4
9873,183.6
9874,151.9
9875,163.3
9876,111.9
9882,184.7
9883,144.5
9884,144.8
9886,153.9
9887,118.7
9889,120.9
9890,126.6
9895,157.4
9897,159.5
9899,164.4
9902,163.9
9906,128.8
9907,178.8
9908,149.7
9909,128.0
9912,164.0
9914,154.7
9915,111.0
9917,171.1
9918,151.4
9921,165.1
9923,181.8
9927,178.6
9930,168.8
9931,154.4
9933,152.2
9934,133.0
9937,167.6
9938,150.9
9939,130.9
9941,153.2
9942,165.2
9946,142.0
9948,172.6
9954,155.2
9955,142.2
9956,157.8
9957,161.7
9958,170.2
9962,136.9
9963,121.5
9964,155.6
9966,150.7
9968,111.1
9969,115.0
9970,157.4
9973,113.6
9974,134.9
9975,144.5
9976,127.5
9977,166.7
9978,137.8
9979,177.0
9982,116.2
9983,133.9
9984,142.0
9985,143.3
9986,117.0
9987,126.7
9989,159.8
9990,115.2
9991,154.1
9996,162.5
9997,151.4
9998,120.5
10000,126.5
10001,111.5
10004,131.0
10006,145.9
10007,139.9
10008,142.0
10010,156.0
10013,158.0
10014,173.7
10015,132.2
10018,132.6
10019,168.0
10020,147.4
10021,142.0
10022,178.2
10028,134.2
10030,175.7
10032,110.7
10034,131.1
10035,152.2
10038,123.8
10039,165.8
10041,177.6
10042,123.1
10047,132.6
10048,110.4
10049,144.5
10050,112.4
10051,116.0
10052,163.2
10053,133.1
10059,164.0
10062,139.4
10076,160.0
10077,135.7
10078,180.7
10079,139.9
10080,118.1
10083,150.1
10084,133.6
10085,131.1
10086,181.8
10087,179.6
10088,138.8
10089,149.7
10090,172.6
10092,152.2
10093,138.4
10095,122.2
10096,122.3
10097,143.9
10099,127.9
10101,167.2
10102,134.2
10105,126.6
10106,120.8
10107,169.6
10108,160.7
10110,131.8
10111,123.6
10112,126.7
10114,116.2
10115,158.0
10117,162.5
10119,179.1
10121,120.4
10122,139.0
10126,113.5
10127,111.5
10130,147.1
10134,172.1
10136,155.4
10137,139.4
10138,177.9
10140,161.8
10141,155.0
10142,143.2
10143,126.5
10145,117.4
10147,132.2
10152,121.8
10153,120.4
10154,119.8
10155,132.7
10156,140.5
10157,157.4
10159,150.6
10162,167.7
10163,177.9
10168,136.9
10170,147.1
10173,128.1
10174,123.2
10175,140.5
10176,155.3
10178,145.6
10179,184.3
10180,110.4
10183,126.6
10184,136.8
10185,119.5
10186,136.6
10191,112.5
10192,126.2
10193,172.9
10195,154.0
10197,147.5
10198,170.2
10203,132.7
10206,168.5
10207,171.6
10209,110.6
10211,149.7
10213,121.3
10215,141.3
10216,160.4
10217,113.7
10218,153.2
10219,158.2
10221,125.9
10224,131.7
10225,156.4
10227,146.7
10230,146.5
10234,155.3
10235,110.2
10237,165.1
10238,158.5
10239,123.8
10242,153.6
10245,135.6
10246,117.5
10247,121.0
10248,173.1
10251,138.2
10252,149.7
10253,163.8
10256,131.1
10257,146.9
10261,148.6
10262,137.6
10264,182.7
10265,142.0
10269,133.2
10271,164.5
10274,153.5
10276,156.6
10277,177.4
10278,165.1
10282,127.0
10283,131.4
10285,168.5
10288,164.5
10290,183.3
10291,120.3
10292,147.1
10296,127.6
10297,182.2
10299,158.8
10300,145.2
10302,178.7
10305,134.2
10307,150.1
10308,115.7
10314,134.9
10315,131.7
10316,165.0
10317,172.8
10318,143.3
10319,152.2
10321,168.7
10322,118.9
10330,132.2
10331,166.8
10333,147.1
10336,124.7
10338,156.1
10339,178.4
10341,179.0
10342,160.3
10343,183.1
10345,142.1
10346,139.4
10347,141.6
10348,142.1
10353,114.4
10355,123.3
10358,145.3
10359,144.5
10366,177.2
10369,141.4
10371,119.4
10373,142.0
10375,168.8
10379,122.0
10380,116.5
10382,162.5
10383,134.1
10384,151.1
10386,140.5
10387,142.0
10388,115.6
10390,164.1
10392,114.5
10393,119.9
10396,115.2
10399,118.5
10400,142.0
10401,145.9
10403,151.0
10404,179.6
10407,111.8
10408,157.2
10409,145.8
10412,142.1
10414,157.4
10415,135.1
10417,120.2
10419,124.9
10420,146.5
10421,150.4
10422,153.9
10423,115.4
10427,157.4
10428,120.4
10431,171.4
10436,148.8
10437,131.3
10439,148.4
10440,142.0
10441,141.1
10444,178.4
10445,116.3
10447,131.5
10448,121.4
10449,133.4
10450,111.6
10451,112.2
10452,166.0
10454,144.0
10455,162.5
10456,135.2
10457,178.1
10459,152.7
10464,150.3
10466,178.1
10468,157.4
10474,121.1
10476,128.2
10477,162.3
10479,125.5
10481,142.0
10483,129.5
10490,135.8
10491,159.4
10493,147.7
10494,172.8
10496,138.5
10499,155.9
10501,119.5
10503,145.9
10504,182.3
10508,163.5
10509,154.8
10510,117.7
10511,159.4
10512,125.1
10513,161.2
10514,141.0
10516,152.8
10518,176.2
10520,135.6
10522,131.7
10524,125.8
10525,149.3
10527,113.1
10528,117.4
10529,130.6
10532,175.3
10533,171.1
10534,170.3
10535,165.1
10537,122.3
10538,142.1
10539,132.0
10541,142.3
10542,174.9
10546,175.8
10547,175.4
10549,154.8
10551,137.7
10552,170.4
10553,146.6
10555,184.5
10556,133.7
10557,135.9
10558,182.2
10561,178.2
10562,131.7
10564,146.7
10565,172.6
10567,160.4
10569,133.6
10573,166.4
10574,156.0
10576,162.5
10577,183.3
10578,129.5
10579,143.1
10580,132.0
10581,141.9
10583,122.4
10586,171.1
10590,142.0
10595,153.3
10597,163.1
10598,172.3
10599,111.6
10600,140.5
10601,120.4
10603,129.1
10606,110.4
10615,141.0
10616,160.0
10617,119.7
10619,152.6
10620,134.5
10621,150.0
10622,135.0
10623,118.2
10624,171.4
10625,114.1
10627,141.6
10629,119.5
10630,147.1
10633,143.5
10636,141.3
10638,146.9
10639,154.8
10640,127.4
10641,134.0
10642,111.6
10643,143.1
10644,134.2
10645,168.3
10646,129.3
10647,175.8
10648,175.0
10649,115.5
10653,153.2
10657,152.2
10658,132.6
10660,175.2
10662,159.3
10664,177.6
10665,124.0
10666,169.1
10670,132.0
10671,136.8
10674,147.0
10676,151.3
10680,174.3
10684,142.0
10686,180.1
10689,162.4
10690,164.7
10691,110.5
10693,178.3
10697,157.4
10700,182.9
10701,164.2
10702,144.8
10703,175.8
10705,138.0
10709,174.8
10711,131.8
10712,152.2
10713,159.2
10714,144.4
10720,125.3
10721,158.7
10722,149.7
10723,117.0
10725,144.5
10726,144.0
10728,161.0
10730,181.0
10731,183.9
10732,120.8
10736,128.2
10737,143.4
10738,142.0
10739,164.8
10740,121.7
10741,114.2
10744,152.6
10745,162.7
10749,133.7
10751,163.8
10752,154.8
10755,139.6
10757,140.0
10759,164.7
10762,110.9
10763,124.8
10764,157.3
10765,154.8
10769,160.3
10770,173.7
10771,168.8
10774,170.6
10776,142.0
10777,110.3
10779,142.0
10780,115.1
10786,120.4
10791,169.5
10792,157.4
10794,121.4
10795,171.6
10796,173.1
10798,176.9
10800,164.0
10803,148.8
10805,147.8
10806,152.2
10808,130.1
10810,139.1
10813,129.0
10814,182.4
10816,150.7
10817,125.3
10818,166.5
10819,142.0
10822,141.7
10823,143.9
10827,153.2
10830,111.7
10832,170.2
10835,169.2
10839,122.5
10841,183.3
10845,150.5
10847,162.5
10849,140.4
10852,164.3
10856,157.9
10860,139.4
10863,162.3
10864,138.6
10865,173.9
10866,158.0
10867,129.0
10868,178.8
10869,176.8
10872,175.8
10873,167.7
10878,155.0
10881,111.8
10882,183.9
10883,178.8
10885,131.0
10886,163.6
10887,152.2
10888,113.9
10889,175.0
10890,120.9
10891,156.6
10894,167.3
10895,117.0
10896,152.3
10897,126.1
10899,113.7
10900,139.4
10905,159.0
10908,176.7
10910,110.1
10911,118.1
10912,134.9
10914,167.7
10915,139.4
10916,145.6
10918,169.0
10919,149.8
10921,161.8
10922,163.1
10926,114.5
10928,147.1
10930,175.8
10932,126.3
10935,149.3
10939,148.2
10941,126.5
10943,157.9
10944,164.6
10950,112.7
10954,157.4
10955,129.1
10957,115.1
10958,131.1
10959,130.4
10960,114.8
10961,140.4
10962,177.0
10963,135.5
10968,142.0
10973,161.5
10974,172.5
10977,124.3
10979,157.6
10981,117.7
10982,134.2
10983,148.6
10985,126.3
10989,133.3
10990,134.0
10991,147.9
10993,124.8
10995,157.4
10996,156.8
10998,110.9
10999,179.2
11000,148.7
11005,133.8
11006,131.1
11009,134.2
11011,118.2
11013,173.1
11016,143.8
11018,129.7
11019,116.8
11020,179.5
11021,112.8
11022,131.7
11026,176.6
11027,169.3
11030,159.3
11031,140.4
11033,155.5
11034,162.0
11035,152.2
11036,158.4
11037,125.3
11040,162.6
11046,142.7
11049,147.1
11050,118.0
11051,148.7
11052,139.2
11053,183.6
11055,148.8
11059,141.7
11063,142.0
11064,116.4
11066,152.8
11068,172.0
11070,138.9
11076,149.7
11077,136.7
11078,165.2
11079,149.1
11082,159.8
11084,122.0
11085,114.9
11088,175.2
11089,147.1
11091,164.0
11092,174.9
11093,135.0
11095,183.4
11096,125.6
11100,124.2
11101,136.7
11102,150.4
11103,144.5
11104,154.1
11111,141.6
11112,143.0
11113,121.2
11114,137.7
11115,137.4
11116,128.0
11117,147.1
11121,128.6
11125,159.2
11128,167.8
11130,160.0
11133,148.2
11138,131.2
11140,139.1
11142,159.5
11143,117.1
11144,152.2
11149,177.9
11153,162.5
11157,136.8
11159,135.1
11162,113.2
11164,161.1
11168,150.5
11170,162.5
11172,130.1
11173,141.9
11177,151.1
11178,155.4
11180,125.6
11184,171.1
11185,162.5
11186,168.2
11187,110.5
11188,169.2
11189,135.6
11190,121.8
11191,171.9
11192,123.4
11194,166.5
11195,142.2
11198,142.0
11199,152.0
11200,158.6
11201,129.1
11204,115.2
11206,137.8
11211,167.7
11212,165.4
11214,114.6
11217,134.0
11218,175.6
11219,137.8
11220,132.5
11221,118.0
11222,127.9
11223,170.3
11225,157.4
11226,145.0
11227,124.3
11228,178.6
11230,150.1
11234,152.3
11235,145.4
11236,176.5
11238,139.4
11240,173.2
11241,157.9
11242,167.4
11245,126.8
11250,174.9
11252,172.8
11253,173.3
11256,181.3
11258,169.5
11261,145.2
11263,179.0
11265,181.3
11266,154.8
11268,118.7
11270,175.9
11274,147.6
11275,120.5
11277,119.6
11278,164.9
11279,136.8
11282,158.9
11283,179.1
11284,124.9
11285,168.5
11286,114.6
11288,143.2
11289,116.2
11290,115.5
11292,162.5
11294,172.0
11304,163.7
11305,147.1
11306,130.9
11315,124.5
11316,160.6
11317,146.7
11319,176.6
11320,131.7
11324,182.3
11328,136.2
11331,159.4
11333,165.1
11335,173.7
11337,161.9
11338,143.5
11341,145.2
11344,166.8
11345,172.6
11346,149.7
11347,168.8
11348,177.7
11349,180.1
11352,160.8
11353,153.7
11355,145.6
11356,138.2
11357,163.2
11358,142.6
11359,167.9
11360,134.2
11362,140.2
11364,144.1
11365,132.2
11366,155.5
11368,164.3
11374,152.2
11378,138.3
11380,174.1
11383,124.6
11384,168.4
11387,144.5
11388,111.2
11391,156.1
11392,137.5
11394,122.1
11396,171.8
11397,131.1
11401,142.0
11403,120.4
11404,160.6
11406,161.2
11413,137.3
11414,154.8
11415,168.5
11420,156.8
11421,181.8
11422,123.7
11423,172.8
11424,153.5
11426,167.0
11427,144.5
11429,128.3
11431,156.8
11432,111.0
11434,111.6
11436,162.0
11439,145.9
11440,128.2
11442,144.5
11443,113.8
11444,118.6
11446,147.0
11452,158.0
11454,118.6
11455,152.2
11457,178.1
11460,134.7
11462,165.9
11466,117.2
11468,160.0
11469,115.2
11470,163.2
11471,178.2
11472,141.4
11473,112.3
11478,112.5
11481,140.1
11482,154.8
11483,152.0
11484,163.8
11489,160.2
11490,173.4
11492,178.2
11493,154.8
11495,144.5
11496,174.8
11499,178.9
11501,125.2
11502,133.9
11503,148.1
11504,163.5
11505,136.9
11508,177.1
11509,162.5
11514,155.0
11515,118.1
11516,152.8
11523,160.0
11531,145.4
11533,116.8
11534,128.9
11535,128.2
11536,139.4
11537,177.2
11538,147.9
11542,141.0
11543,157.5
11544,174.0
11545,160.9
11547,128.0
11549,170.2
11550,121.7
11552,175.7
11553,116.9
11554,184.6
11557,147.1
11563,152.2
11564,120.4
11566,159.3
11568,141.7
11571,121.0
11572,148.9
11575,133.3
11577,131.7
11578,150.4
11581,129.8
11582,176.7
11584,177.6
11587,184.1
11588,147.4
11590,162.5
11592,119.6
11594,110.2
11596,170.8
11597,161.7
11598,165.1
11599,159.3
11601,111.6
11602,139.3
11603,157.4
11605,113.7
11606,132.8
11608,166.0
11609,169.2
11610,134.0
11611,154.2
11612,152.0
11613,135.3
11616,125.6
11617,136.8
11619,120.7
11622,175.8
11625,140.0
11626,158.9
11630,167.7
11634,164.7
11635,175.9
11636,162.2
11637,124.9
11638,127.6
11639,177.4
11640,173.4
11641,178.2
11643,138.6
11644,147.1
11645,163.5
11646,172.4
11653,125.1
11654,111.0
11655,178.0
11658,136.8
11661,114.3
11662,112.8
11665,113.9
11670,171.6
11671,172.8
11672,154.1
11673,114.9
11675,143.3
11680,118.5
11684,149.7
11687,110.3
11689,180.5
11690,174.0
11694,149.9
11695,113.4
11697,149.5
11698,136.8
11699,183.7
11700,127.3
11701,162.4
11704,130.9
11706,135.1
11707,176.1
11708,155.0
11710,123.5
11712,157.4
11713,161.2
11714,156.6
11716,127.3
11717,179.3
11718,163.0
11721,157.5
11724,141.3
11725,142.0
11726,116.6
11731,167.8
11732,139.5
11733,150.0
11736,158.2
11738,148.4
11739,136.8
11742,170.8
11745,120.5
11746,120.3
11749,157.6
11750,149.0
11752,154.8
11753,136.2
11754,183.8
11756,167.1
11757,132.7
11758,144.4
11761,162.3
11762,129.2
11764,144.3
11765,144.5
11766,110.3
11767,136.1
11768,163.8
11772,115.5
11773,172.1
11776,184.8
11778,112.7
11779,136.2
11780,134.2
11782,151.1
11783,125.9
11785,168.5
11786,128.3
11787,174.7
11793,139.4
11795,142.4
11796,179.7
11799,155.3
11800,156.4
11801,131.8
11803,120.5
11804,151.8
11806,142.0
11816,184.1
11817,166.0
11820,149.7
11821,120.5
11823,141.7
11825,127.5
11826,184.9
11827,165.0
11830,136.7
11833,144.5
11836,112.2
11837,164.6
11838,140.4
11842,146.4
11847,154.8
11851,145.9
11853,175.0
11854,148.2
11856,145.9
11860,152.2
11862,175.2
11863,119.4
11865,149.8
11867,170.8
11868,126.3
11873,179.5
11874,144.5
11875,142.4
11876,149.4
11881,159.9
11882,136.8
11883,116.6
11884,159.1
11886,175.9
11887,170.2
11890,168.7
11891,122.1
11892,179.3
11893,122.9
11895,121.9
11897,141.9
11899,142.6
11900,157.4
11901,148.6
11902,161.8
11903,110.8
11909,162.4
11911,124.6
11914,158.3
11915,142.0
11917,116.4
11918,139.6
11920,171.3
11921,122.7
11922,151.3
11925,158.1
11926,160.7
11927,163.6
11928,167.7
11930,182.6
11931,110.1
11933,131.9
11934,153.8
11935,170.6
11936,152.4
11940,118.0
11941,154.8
11942,134.3
11943,156.7
11948,146.0
11949,121.4
11950,134.2
11952,155.2
11953,147.2
11954,132.2
11955,134.2
11956,151.2
11962,124.1
11964,151.8
11965,182.0
11968,162.5
11970,149.9
11974,133.8
11977,179.3
11978,178.9
11979,180.6
11981,131.8
11982,144.5
11984,168.0
11985,118.2
11986,181.0
11987,139.1
11988,146.2
11991,153.7
11993,152.9
11994,181.5
11996,123.9
11997,120.4
11998,181.8
11999,174.7
12002,175.1
12006,136.3
12007,117.0
12008,150.0
12009,154.8
12013,116.0
12015,118.6
12019,183.3
12021,149.4
12022,144.5
12024,113.0
12025,175.5
12027,137.1
12030,113.3
12036,134.2
12038,163.9
12040,123.8
12043,130.2
12045,162.8
12046,123.6
12049,181.1
12050,157.4
12053,152.1
12055,176.7
12056,136.2
12059,144.7
12063,136.8
12064,113.7
12065,127.5
12067,111.2
12070,120.6
12075,124.7
12076,119.3
12077,126.5
12081,164.8
12082,121.2
12089,157.5
12090,152.2
12092,114.8
12094,148.0
12096,172.7
12099,112.7
12102,130.6
12103,139.4
12106,152.9
12107,182.7
12111,140.1
12112,158.2
12118,134.2
12120,135.8
12121,184.7
12125,122.2
12128,173.8
12131,144.5
12134,140.6
12135,125.8
12136,118.9
12140,152.1
12141,138.8
12142,176.5
12144,136.8
12145,111.0
12146,181.4
12148,157.9
12151,111.5
12152,120.2
12153,129.6
12154,123.0
12156,138.9
12157,139.4
12161,163.3
12163,120.4
12165,162.6
12166,153.1
12168,137.3
12170,145.2
12171,144.5
12172,169.4
12174,157.6
12175,184.6
12177,162.3
12178,134.5
12182,176.3
12184,161.8
12185,152.2
12190,170.5
12192,167.2
12196,132.9
12198,142.0
12200,181.0
12201,182.1
12202,137.6
12207,140.6
12208,168.3
12209,147.2
12212,131.7
12213,113.7
12215,138.5
12216,177.7
12220,169.2
12225,152.2
12226,137.1
12227,132.8
12231,180.5
12233,126.4
12234,134.8
12236,114.9
12237,138.6
12238,142.2
12239,160.0
12241,151.2
12242,150.2
12243,171.7
12244,136.5
12246,175.5
12252,124.9
12253,144.5
12257,166.1
12258,130.1
12260,124.9
12262,132.3
12263,165.6
12266,167.7
12268,127.1
12269,180.5
12271,136.5
12272,151.0
12277,142.2
12279,154.8
12280,122.0
12281,141.2
12282,147.1
12283,142.6
12286,139.4
12287,132.5
12288,133.5
12290,121.6
12291,174.6
12292,170.9
12293,134.2
12294,145.5
12295,149.3
12300,110.3
12307,167.7
12308,148.1
12309,155.7
12311,128.3
12315,168.0
12316,158.8
12317,167.9
12319,155.8
12320,157.4
12322,126.4
12328,172.2
12330,128.9
12334,131.7
12337,128.3
12338,183.2
12341,142.3
12342,154.8
12343,135.3
12344,150.2
12345,136.7
12347,157.4
12348,167.2
12350,169.3
12353,133.9
12356,114.5
12358,184.6
12359,112.4
12360,144.5
12361,123.1
12362,130.2
12363,144.8
12365,165.0
12368,110.6
12370,144.3
12372,131.0
12374,178.8
12375,134.2
12377,166.9
12379,166.9
12380,152.5
12382,162.3
12384,143.5
12385,178.6
12388,162.5
12389,146.8
12392,120.6
12395,182.9
12397,133.6
12399,157.6
12401,144.5
12402,179.2
12405,160.0
12409,182.7
12410,110.4
12412,152.2
12413,112.1
12414,131.7
12415,141.6
12418,135.1
12419,184.5
12420,118.2
12426,112.9
12428,152.2
12430,119.9
12433,162.3
12434,110.4
12436,184.4
12438,111.7
12440,123.9
12441,152.2
12442,136.8
12443,133.4
12445,135.8
12446,176.4
12451,120.4
12452,144.8
12453,129.9
12455,139.4
12458,161.3
12459,160.4
12462,127.4
12463,126.8
12464,146.9
12466,174.4
12467,166.9
12468,124.1
12469,157.4
12471,169.8
12472,164.4
12473,117.5
12474,120.7
12475,159.3
12476,153.2
12479,130.6
12480,175.2
12481,140.1
12482,142.0
12483,123.8
12485,144.6
12489,129.8
12490,151.4
12491,173.0
12493,138.5
12495,131.7
12501,123.7
12502,160.1
12503,118.3
12504,113.8
12505,137.3
12510,142.0
12511,126.8
12512,124.4
12515,163.6
12517,136.3
12520,131.9
12521,181.6
12523,147.1
12524,129.5
12526,166.7
12528,183.3
12530,169.9
12532,171.8
12534,156.9
12535,153.8
12536,144.5
12542,134.3
12543,115.9
12544,159.9
12545,179.2
12546,135.8
12548,136.8
12550,139.4
12551,166.7
12555,126.5
12559,144.0
12563,147.1
12565,112.3
12567,167.4
12572,120.2
12574,124.0
12577,149.7
12580,173.4
12581,141.2
12582,125.0
12587,143.2
12588,138.9
12591,136.8
12595,184.8
12598,120.5
12600,116.5
12602,133.8
12603,145.7
12604,165.1
12609,182.2
12610,163.9
12611,167.2
12612,166.0
12614,167.1
12615,129.3
12616,117.6
12617,160.0
12618,166.5
12621,112.2
12622,129.3
12623,118.9
12624,183.2
12630,159.1
12631,136.8
12633,139.4
12636,111.1
12637,156.6
12638,114.4
12639,152.8
12640,116.3
12641,172.4
12642,128.0
12643,169.3
12645,162.5
12648,127.6
12649,156.4
12651,135.2
12652,115.5
12657,165.9
12658,152.2
12659,180.6
12662,133.3
12665,112.4
12669,134.7
12670,156.2
12671,154.3
12672,136.8
12673,120.7
12674,171.6
12677,178.6
12678,162.8
12679,141.4
12682,127.1
12685,170.2
12686,170.3
12687,181.1
12688,181.4
12689,126.1
12695,168.6
12698,147.1
12699,172.1
12700,149.8
12701,151.7
12707,181.8
12709,133.1
12710,135.8
12711,180.2
12712,129.1
12713,159.3
12716,158.8
12717,114.3
12718,137.7
12722,171.2
12723,140.1
12724,137.5
12725,174.4
12726,157.4
12729,120.9
12730,123.2
12733,164.2
12734,118.0
12735,129.2
12737,145.4
12739,144.5
12740,167.5
12742,143.1
12743,145.0
12744,155.5
12746,114.8
12747,163.9
12748,132.0
12749,111.8
12750,131.4
12751,129.4
12752,134.2
12753,177.1
12756,149.1
12759,163.0
12761,158.5
12762,128.7
12764,176.2
12766,154.8
12768,137.9
12769,178.7
12770,116.3
12773,112.9
12774,159.0
12775,121.8
12776,183.6
12778,146.3
12779,118.9
12780,136.8
12785,158.2
12788,134.1
12789,140.6
12793,126.5
12794,161.2
12801,118.6
12803,160.5
12804,145.1
12805,119.5
12806,177.7
12807,147.1
12808,182.0
12811,170.7
12812,178.2
12813,126.0
12814,122.1
12815,118.4
12818,142.1
12819,161.4
12820,139.4
12822,116.3
12824,114.0
12833,136.8
12837,147.8
12838,127.1
12839,156.4
12842,121.8
12844,154.5
12845,128.5
12846,152.5
12847,115.7
12848,147.1
12849,134.2
12851,126.3
12852,144.5
12855,168.4
12856,118.5
12859,112.0
12860,120.3
12861,139.4
12862,148.5
12863,143.8
12864,110.1
12866,158.3
12867,136.0
12869,154.6
12871,156.4
12873,164.7
12874,136.8
12877,138.0
12879,124.7
12880,129.1
12884,133.8
12885,110.8
12888,144.5
12892,184.1
12893,110.4
12897,168.2
12899,138.3
12901,154.8
12904,170.5
12907,128.3
12909,147.1
12915,147.1
12916,156.0
12917,176.5
12919,165.9
12923,133.2
12925,136.0
12926,114.1
12929,139.4
12932,154.6
12933,147.7
12934,143.9
12936,139.7
12938,127.8
12941,168.4
12942,160.0
12944,130.4
12946,155.3
12947,163.9
12949,125.4
12950,140.6
12952,161.7
12953,161.0
12955,157.4
12959,132.3
12960,115.2
12966,163.3
12968,142.0
12972,121.0
12973,169.2
12974,150.6
12976,117.2
12978,115.7
12980,128.3
12983,165.1
12985,151.2
12988,119.9
12989,122.9
12990,113.6
12991,166.3
12996,149.7
12997,117.5
13000,128.3
13003,138.1
13004,117.5
13005,133.3
13007,121.2
13008,117.4
13009,126.5
13010,150.2
13013,151.0
13015,137.1
13016,127.7
13019,112.4
13022,151.3
13023,157.4
13026,124.8
13028,164.8
13031,176.1
13033,160.4
13035,149.2
13036,152.2
13037,164.3
13038,157.8
13039,126.7
13042,173.1
13044,127.8
13049,152.4
13050,134.2
13054,160.1
13057,116.4
13058,180.4
13060,145.9
13063,128.4
13064,162.5
13067,138.5
13070,110.9
13077,142.0
13078,166.2
13081,154.4
13084,133.0
13086,146.5
13090,123.9
13094,146.2
13095,113.5
13096,111.7
13098,119.7
13100,129.3
13101,163.8
13102,168.5
13105,157.4
13106,182.5
13107,178.5
13108,144.3
13112,142.5
13113,130.2
13115,137.4
13118,147.1
13120,169.6
13121,169.6
13123,160.3
13125,172.8
13128,134.0
13131,129.1
13133,123.5
13134,144.4
13135,149.7
13136,116.1
13138,118.3
13142,168.6
13144,166.5
13145,149.7
13147,156.7
13149,169.9
13153,132.8
13155,129.5
13156,137.3
13157,155.4
13158,134.2
13160,120.6
13161,139.7
13162,135.4
13165,171.7
13166,155.0
13168,144.0
13169,147.4
13170,127.7
13171,143.5
13172,131.7
13175,161.3
13179,118.7
13180,166.6
13181,147.6
13182,141.1
13183,120.6
13186,149.7
13192,141.9
13193,153.8
13195,140.1
13198,120.1
13199,139.4
13207,140.1
13208,172.2
13209,179.3
13211,143.0
13212,134.2
13214,126.4
13216,111.9
13218,137.3
13220,125.6
13222,117.4
13223,150.8
13225,142.0
13226,173.9
13227,145.8
13230,131.5
13232,184.5
13238,122.4
13239,120.5
13240,139.4
13245,161.6
13246,179.6
13247,167.1
13248,131.7
13249,138.6
13253,144.5
13255,115.2
13256,132.3
13257,139.3
13258,138.6
13261,147.1
13266,142.0
13267,125.4
13270,126.4
13272,132.3
13274,161.0
13280,152.2
13282,115.4
13283,144.3
13284,168.4
13285,161.3
13286,123.1
13287,160.3
13288,138.1
13290,132.2
13293,144.5
13294,127.0
13297,155.1
13298,184.3
13299,165.3
13300,125.5
13301,179.2
13302,129.6
13305,112.0
13307,131.7
13309,128.8
13310,133.5
13312,150.4
13313,152.4
13317,154.5
13318,177.7
13321,152.2
13322,179.5
13323,126.2
13326,151.3
13328,168.5
13334,152.2
13337,127.3
13339,112.1
13341,150.6
13342,146.5
13347,131.7
13353,155.3
13354,158.1
13356,140.1
13361,160.0
13362,127.0
13363,173.2
13364,167.4
13367,153.2
13368,123.6
13370,181.4
13374,168.5
13375,144.5
13380,163.0
13381,181.1
13382,118.5
13383,158.3
13384,146.2
13385,114.3
13388,126.5
13391,134.7
13392,126.7
13397,114.8
13399,178.1
13401,113.7
13402,160.0
13403,165.7
13409,161.4
13410,153.4
13411,116.1
13415,147.1
13416,143.9
13417,119.6
13419,121.8
13420,146.0
13422,148.9
13426,111.5
13428,126.5
13432,150.2
13433,143.5
13439,153.8
13441,184.2
13443,160.0
13444,140.0
13446,114.0
13447,172.1
13448,135.1
13450,143.6
13451,156.0
13454,169.3
13456,147.1
13458,164.5
13460,159.2
13461,172.4
13463,145.8
13469,134.2
13477,131.4
13480,156.1
13481,156.8
13482,114.3
13483,160.0
13485,122.1
13488,175.1
13489,118.0
13491,119.3
13495,130.9
13496,136.8
13497,174.0
13501,169.3
13502,184.1
13510,123.9
13512,136.7
13513,165.3
13514,151.5
13515,150.1
13517,117.7
13518,180.5
13520,182.6
13521,142.5
13523,149.7
13524,146.9
13525,157.4
13526,161.4
13528,181.8
13529,163.0
13532,140.5
13533,128.2
13536,184.5
13537,131.7
13538,125.0
13539,117.1
13540,154.7
13541,183.6
13542,137.5
13547,136.4
13550,134.2
13554,171.3
13555,165.9
13556,166.5
13557,117.8
13558,154.8
13561,155.7
13563,144.5
13566,126.3
13567,178.5
13568,148.0
13570,116.7
13572,172.9
13573,125.8
13577,174.0
13578,136.8
13581,163.3
13583,158.6
13584,176.5
13590,114.0
13591,136.8
13592,149.8
13596,181.1
13597,162.3
13598,118.5
13602,125.5
13604,139.4
13605,171.7
13606,147.5
13609,142.0
13610,147.0
13615,124.1
13616,161.2
13618,147.1
13631,144.5
13633,122.9
13634,139.2
13636,170.2
13637,161.8
13639,141.6
13640,119.0
13641,172.8
13642,115.8
13643,156.0
13645,134.2
13646,149.5
13647,130.1
13648,112.7
13657,173.6
13658,133.3
13659,154.8
13661,155.2
13662,114.2
13663,145.7
13664,122.3
13669,136.8
13670,132.2
13671,148.7
13672,152.2
13679,135.0
13681,126.9
13682,162.1
13683,177.8
13685,139.4
13686,171.5
13687,127.6
13688,154.8
13689,153.9
13690,166.9
13697,119.3
13698,146.1
13699,165.1
13701,130.9
13702,164.9
13703,155.3
13705,121.6
13707,178.3
13708,168.3
13710,176.9
13711,117.9
13713,152.2
13714,170.7
13716,115.2
13717,155.0
13720,165.5
13722,134.2
13726,129.1
13727,176.0
13728,115.0
13729,165.4
13733,183.6
13734,181.2
13735,129.1
13737,147.0
13738,141.6
13740,160.0
13742,123.5
13744,180.1
13745,171.4
13746,184.4
13748,163.0
13750,140.4
13751,112.8
13752,162.2
13753,149.7
13757,139.6
13758,152.9
13763,129.6
13765,129.4
13766,136.8
13767,171.9
13769,164.2
13773,151.6
13775,133.9
13778,117.0
13780,165.1
13782,139.2
13783,168.2
13785,155.2
13786,110.7
13789,167.9
13790,145.3
13793,140.0
13794,144.5
13797,159.6
13798,135.3
13799,181.8
13800,113.5
13803,154.0
13805,162.2
13806,132.9
13807,126.5
13808,176.1
13812,153.4
13815,144.9
13818,157.2
13819,178.6
13820,154.8
13822,112.4
13823,183.9
13826,155.8
13830,175.0
13833,162.7
13834,139.4
13835,144.6
13836,157.7
13837,176.9
13839,134.6
13841,180.9
13842,179.4
13845,141.4
13847,148.1
13848,129.1
13849,115.0
13851,125.5
13853,182.2
13854,145.3
13856,180.1
13859,144.0
13860,145.9
13861,149.7
13862,120.2
13863,145.9
13867,127.0
13872,132.0
13873,110.8
13875,136.8
13876,179.0
13877,132.9
13880,158.8
13883,158.5
13886,165.1
13887,180.9
13888,121.4
13890,117.1
13891,156.3
13892,176.0
13894,173.0
13895,127.2
13897,170.7
13900,140.9
13901,144.5
13908,178.4
13909,123.9
13910,127.6
13911,133.5
13915,177.6
13916,136.8
13920,117.1
13921,150.8
13927,158.7
13928,133.3
13929,136.8
13932,130.1
13935,132.2
13936,182.9
13938,175.4
13940,130.3
13941,160.2
13942,139.4
13944,160.1
13945,121.8
13946,131.0
13948,170.6
13951,166.5
13956,139.4
13957,110.5
13958,155.1
13959,142.9
13960,136.3
13963,177.1
13964,116.8
13965,160.1
13970,139.4
13971,148.6
13972,159.3
13973,183.5
13975,141.2
13977,130.5
13981,156.0
13982,153.2
13983,139.4
13985,117.7
13988,147.1
13991,124.4
13996,150.4
13997,149.7
13998,163.0
13999,177.3
14001,145.1
14003,134.0
14004,172.3
14009,120.1
14010,142.0
14013,172.9
14014,184.3
14018,161.3
14022,156.8
14023,129.1
14025,148.1
14028,171.8
14030,138.9
14031,115.7
14032,177.6
14036,168.5
14038,152.2
14040,112.0
14042,125.0
14043,138.7
14044,156.2
14045,123.6
14048,153.3
14050,184.3
14051,154.8
14052,112.6
14060,181.8
14061,128.1
14064,136.8
14066,138.7
14068,138.6
14073,153.7
14075,180.2
14076,141.8
14077,160.0
14078,123.0
14080,122.6
14081,136.0
14085,127.4
14086,138.8
14088,152.7
14089,117.0
14091,149.7
14093,114.9
14095,171.7
14096,168.7
14100,124.4
14101,160.8
14102,172.7
14103,169.5
14105,126.5
14106,168.8
14109,132.9
14112,131.0
14113,157.3
14116,121.2
14118,157.4
14119,110.2
14122,141.8
14123,123.3
14124,165.9
14126,130.3
14131,124.3
14132,144.5
14133,170.4
14134,160.6
14136,150.4
14137,127.3
14138,127.9
14139,125.7
14140,137.8
14141,180.4
14143,165.3
14144,138.6
14145,126.5
14147,177.7
14152,129.1
14153,112.8
14155,142.6
14157,170.6
14158,152.2
14160,170.9
14161,123.2
14162,128.7
14163,152.2
14164,138.8
14168,156.5
14170,120.0
14171,134.7
14172,111.6
14173,136.8
14174,130.2
14175,135.5
14177,172.5
14178,153.3
14179,136.1
14180,183.1
14181,173.9
14182,157.5
14183,180.2
14186,123.9
14188,170.5
14190,184.2
14193,155.7
14196,175.9
14197,179.1
14198,173.3
14199,152.2
14200,174.9
14201,128.7
14203,142.0
14205,177.8
14207,175.5
14208,141.6
14209,134.5
14210,134.2
14211,117.2
14212,174.6
14213,139.4
14214,140.4
14215,113.4
14216,144.3
14217,170.2
14220,149.2
14221,110.3
14225,167.2
14226,123.9
14228,169.9
14232,135.5
14234,120.2
14236,148.1
14239,144.1
14240,144.5
14241,180.1
14243,183.9
14244,165.5
14245,155.8
14246,140.1
14247,138.3
14248,182.2
14253,142.2
14254,134.2
14256,154.2
14257,155.8
14258,129.4
14260,111.2
14261,162.6
14263,144.3
14265,174.0
14267,134.2
14268,158.2
14271,175.4
14274,175.0
14277,142.5
14279,113.9
14280,147.1
14281,173.5
14283,156.6
14284,178.1
14285,116.1
14286,182.3
14287,126.1
14290,149.3
14291,169.7
14294,139.4
14296,181.3
14298,179.9
14300,143.6
14301,135.3
14304,146.0
14308,136.8
14314,136.9
14316,142.4
14319,134.4
14321,139.4
14323,158.9
14324,115.7
14325,164.6
14329,141.7
14334,142.0
14335,111.5
14339,117.2
14344,146.9
14347,131.9
14348,147.1
14352,152.2
14353,164.2
14355,123.6
14356,131.3
14357,125.6
14358,182.4
14359,155.8
14361,136.8
14369,158.0
14370,142.6
14371,148.8
14375,152.2
14376,111.4
14377,183.2
14378,179.5
14381,134.3
14382,178.2
14383,158.4
14385,168.6
14387,140.6
14389,149.7
14390,163.1
14391,169.3
14392,127.2
14395,135.7
14397,113.4
14398,171.9
14399,166.2
14401,129.8
14402,131.7
14408,123.3
14412,152.1
14414,115.4
14415,160.0
14416,172.4
14418,150.3
14420,122.6
14422,134.8
14423,143.4
14426,132.5
14429,142.0
14431,112.5
14434,119.8
14435,114.2
14437,174.7
14442,174.4
14443,123.9
14446,150.4
14447,175.3
14448,184.9
14449,142.1
14453,122.9
14455,138.2
14456,154.8
14457,172.3
14458,148.6
14460,169.2
14461,157.2
14466,167.0
14467,128.7
14469,158.5
14470,149.7
14471,153.0
14472,166.9
14473,140.5
14479,151.9
14483,129.1
14486,113.9
14487,138.9
14488,134.2
14489,136.3
14490,111.4
14496,157.4
14497,173.0
14499,111.6
14501,116.0
14503,167.3
14504,142.9
14506,153.4
14510,155.1
14511,139.4
14513,116.3
14515,170.5
14518,158.6
14519,110.1
14521,132.0
14523,179.0
14524,123.9
14525,174.5
14528,121.1
14530,175.1
14532,163.1
14533,144.5
14534,149.3
14535,166.9
14536,113.7
14537,147.1
14539,126.2
14540,134.6
14544,121.0
14545,180.9
14548,166.1
14550,126.2
14551,129.1
14554,132.8
14558,131.1
14560,157.2
14563,129.4
14564,121.4
14565,148.2
14567,154.8
14569,166.0
14578,144.5
14580,163.9
14581,127.4
14583,150.3
14586,160.6
14592,126.5
14594,121.3
14598,126.7
14600,143.0
14602,141.6
14603,145.8
14605,126.5
14607,173.2
14610,177.7
14611,143.6
14616,126.5
14617,119.3
14618,142.0
14619,143.5
14621,131.0
14622,136.8
14623,144.6
14624,142.1
14627,160.6
14629,176.8
14630,139.1
14631,131.7
14634,180.7
14636,143.3
14637,133.5
14639,113.1
14640,156.1
14644,178.2
14645,178.6
14646,134.2
14647,155.4
14648,171.0
14650,129.9
14652,147.2
14653,168.0
14658,138.1
14659,136.8
14660,130.4
14662,131.5
14665,128.0
14669,131.4
14670,147.7
14672,136.8
14674,135.1
14676,154.1
14679,173.6
14681,143.5
14682,144.5
14683,129.0
14684,171.9
14686,142.0
14688,112.1
14690,166.5
14692,128.0
14693,139.2
14699,139.4
14701,141.5
14703,145.6
14704,111.9
14711,175.4
14713,149.7
14714,111.7
14715,175.0
14716,141.6
14719,136.6
14720,133.1
14721,143.4
14722,125.0
14725,116.6
14726,133.8
14727,144.5
14728,145.3
14729,125.6
14731,168.3
14734,114.5
14736,154.1
14738,169.2
14739,158.3
14740,134.2
14741,113.5
14742,173.8
14745,165.4
14746,169.7
14748,137.9
14750,136.8
14753,162.5
14754,148.0
14755,128.2
14757,131.8
14762,129.8
14763,128.3
14764,183.7
14767,154.8
14770,170.0
14775,159.1
14778,141.7
14779,128.5
14781,136.8
14782,181.5
14786,178.5
14790,174.9
14791,119.8
14794,162.5
14796,140.9
14799,183.8
14801,157.3
14808,147.1
14809,178.7
14817,160.3
14818,111.0
14819,181.8
14821,131.7
14826,129.5
14829,112.2
14830,185.0
14832,165.3
14835,162.5
14840,115.3
14842,165.2
14844,171.1
14847,153.9
14849,144.5
14851,166.5
14853,137.1
14854,141.6
14858,115.9
14859,161.7
14860,154.8
14862,123.9
14864,152.6
14867,165.2
14869,172.5
14872,184.5
14875,149.7
14876,116.5
14877,117.6
14878,176.5
14882,147.7
14884,166.2
14887,143.6
14888,134.2
14889,179.7
14890,140.1
14894,115.7
14898,164.8
14899,145.3
14902,141.9
14903,123.9
14904,117.0
14907,158.2
14908,158.6
14909,148.3
14913,160.2
14916,152.2
14917,131.0
14918,144.6
14920,153.8
14922,140.0
14924,158.8
14926,168.6
14928,138.8
14929,139.4
14931,176.4
14932,163.1
14934,111.2
14935,138.0
14940,120.0
14943,126.5
14945,140.3
14946,183.3
14947,154.0
14948,111.3
14949,158.1
14955,115.1
14956,147.1
14957,163.9
14958,162.6
14960,161.9
14961,110.3
14963,123.5
14966,162.8
14969,147.2
14970,142.0
14972,178.1
14973,174.2
14975,133.7
14980,172.9
14981,161.0
14983,156.7
14984,134.2
14986,141.7
14987,178.6
14988,115.0
14989,114.1
14991,115.0
14992,175.7
14993,149.9
14994,138.2
14995,133.1
14996,133.1
14997,149.7
14998,175.1
15000,126.0
15003,154.3
15008,116.8
15010,139.4
15012,144.0
15014,165.5
15015,135.5
15018,129.6
15022,132.4
15024,139.4
15027,132.7
15029,119.6
15030,124.1
15031,155.4
15032,131.2
15035,111.3
15038,142.0
15040,177.3
15041,175.5
15043,122.5
15044,164.2
15047,168.7
15048,146.1
15049,126.9
15050,136.8
15051,149.7
15057,116.2
15059,178.7
15060,161.1
15061,166.6
15065,142.0
15066,140.5
15069,133.3
15070,175.0
15071,147.3
15073,132.7
15074,125.3
15075,182.7
15076,178.9
15077,115.7
15078,134.2
15082,160.6
15083,110.6
15085,136.7
15088,138.0
15090,130.1
15091,147.1
15092,180.9
15093,141.4
15097,133.9
15099,171.1
15105,136.2
15106,142.0
15108,181.3
15110,180.2
15112,168.2
15117,137.4
15118,122.6
15119,134.2
15121,118.9
15125,151.3
15128,134.6
15129,175.8
15132,160.0
15135,170.5
15136,114.3
15137,153.3
15138,132.8
15139,176.5
15141,169.5
15144,115.7
15145,149.7
15152,122.8
15155,184.8
15158,183.4
15159,129.1
15160,134.8
15165,170.6
15166,173.0
15167,183.0
15168,118.3
15170,144.6
15171,166.8
15173,160.0
15175,123.3
15177,150.4
15179,180.7
15180,117.3
15182,126.5
15184,149.9
15185,181.6
15186,152.2
15188,116.9
15191,176.9
15194,167.4
15195,164.9
15200,134.2
15205,184.5
15207,182.0
15208,114.9
15209,129.4
15210,138.9
15213,165.1
15216,129.4
15217,162.8
15218,183.7
15219,123.0
15220,178.6
15222,117.7
15224,155.6
15226,147.1
15227,137.7
15228,144.7
15230,173.1
15231,183.4
15232,173.5
15233,173.0
15234,165.2
15235,117.6
15236,114.7
15239,133.6
15241,126.5
15243,145.4
15245,124.5
15248,116.8
15250,116.5
15254,157.4
15258,164.3
15259,116.6
15261,128.7
15262,134.9
15263,158.1
15266,137.2
15267,142.0
15268,173.7
15270,181.4
15276,134.1
15281,126.5
15282,112.9
15283,114.4
15284,133.0
15285,110.8
15287,143.1
15294,149.7
15295,116.6
15296,163.4
15297,177.0
15298,156.2
15301,176.6
15304,140.5
15305,156.0
15306,132.7
15308,129.1
15310,167.6
15311,134.0
15312,140.5
15318,173.0
15322,123.9
15328,142.4
15329,166.2
15330,132.9
15335,144.5
15337,184.1
15338,132.8
15340,168.7
15342,165.6
15343,123.8
15345,154.3
15346,120.6
15348,136.8
15349,180.4
15360,174.3
15362,131.7
15364,154.8
15365,135.6
15367,114.1
15370,133.0
15374,116.2
15376,136.8
15377,156.4
15379,165.0
15383,117.7
15387,141.5
15388,117.8
15389,139.4
15393,162.1
15394,138.7
15396,158.1
15397,161.8
15398,117.0
15400,114.4
15403,152.2
15406,166.5
15407,173.0
15409,162.7
15412,149.5
15414,119.9
15416,149.7
15423,159.8
15424,120.0
15425,165.5
15429,157.4
15430,140.3
15433,120.6
15435,171.8
15437,179.4
15438,121.4
15439,116.3
15440,170.8
15443,152.2
15450,136.7
15451,157.9
15454,122.8
15455,168.7
15456,172.7
15457,136.8
15458,152.6
15459,138.6
15460,121.0
15461,149.7
15462,157.4
15464,147.2
15468,170.0
15469,163.1
15470,160.0
15471,165.9
15475,110.8
15479,152.7
15481,120.4
15482,170.0
15483,157.4
15486,157.5
15488,180.3
15489,157.5
15491,146.9
15493,167.0
15495,151.3
15496,144.2
15497,136.8
15498,162.8
15500,121.8
15502,112.3
15504,182.0
15505,159.6
15506,178.5
15509,130.0
15511,160.0
15513,135.5
15514,147.0
15516,119.7
15518,170.4
15523,151.7
15524,149.7
15527,180.4
15530,120.9
15535,136.2
15536,132.1
15537,124.0
15538,129.1
15539,163.8
15540,113.4
15541,160.8
15542,148.4
15547,179.4
15548,158.2
15550,163.0
15551,165.1
15552,121.1
15553,157.4
15554,148.7
15558,111.2
15560,138.5
15563,131.6
15564,149.7
15565,112.2
15566,169.3
15567,172.4
15568,129.7
15570,141.4
15571,136.9
15573,132.5
15574,145.8
15575,143.8
15576,170.3
15577,161.9
15579,134.2
15580,155.5
15581,135.6
15582,163.9
15585,111.7
15586,175.3
15588,157.6
15589,182.9
15592,160.0
15599,153.8
15601,134.8
15602,139.4
15603,161.6
15605,139.4
15606,125.3
15608,117.0
15609,139.2
15610,157.0
15616,136.6
15618,170.4
15619,139.4
15621,126.5
15623,151.9
15626,149.8
15627,179.5
15629,143.2
15632,165.1
15634,176.0
15636,136.1
15640,162.3
15641,178.3
15642,156.0
15646,142.0
15647,172.2
15648,115.6
15649,139.2
15657,181.9
15660,129.1
15665,141.3
15666,119.6
15667,179.6
15668,173.3
15670,111.7
15673,149.7
15674,116.6
15675,117.3
15676,164.5
15677,124.5
15678,138.7
15681,179.2
15684,146.1
15686,136.8
15687,154.2
15688,159.9
15689,143.5
15690,176.2
15691,166.5
15692,156.2
15695,126.1
15697,111.3
15699,134.7
15700,136.8
15702,167.0
15706,164.8
15707,174.3
15710,149.1
15713,169.8
15714,147.1
15719,167.4
15722,164.7
15723,152.0
15724,181.3
15725,152.7
15727,136.8
15729,133.1
15730,154.2
15732,166.5
15735,129.5
15740,139.4
15741,170.7
15743,164.8
15744,181.8
15746,127.5
15747,143.0
15748,152.1
15750,154.1
15754,147.1
15758,176.2
15760,181.8
15761,140.7
15763,126.1
15767,114.2
15768,152.2
15770,152.3
15774,164.7
15775,119.5
15776,164.8
15777,147.0
15780,170.6
15781,147.1
15782,129.2
15784,148.3
15792,148.8
15794,171.1
15795,139.4
15798,149.7
15799,167.8
15802,172.6
15804,134.9
15805,161.7
15807,121.2
15808,154.8
15810,176.8
15811,137.6
15812,159.8
15813,159.7
15817,159.8
15820,175.4
15821,147.1
15823,121.9
15824,178.0
15829,163.8
15831,177.6
15836,139.4
15841,167.0
15842,118.3
15846,126.4
15849,167.7
15854,128.4
15855,125.7
15857,142.8
15860,148.2
15862,154.8
15865,135.7
15866,150.1
15875,132.4
15876,131.7
15878,180.7
15880,141.7
15881,178.0
15884,157.9
15885,147.7
15886,155.8
15889,162.5
15893,139.9
15900,134.3
15901,151.4
15903,154.8
15907,146.0
15908,130.2
15911,131.1
15914,134.4
15916,153.1
15917,136.8
15919,135.1
15920,116.0
15922,136.8
15927,125.0
15928,180.3
15930,165.1
15931,134.2
15933,135.8
15935,169.0
15938,134.7
15940,157.1
15941,179.3
15942,162.5
15943,147.1
15947,146.6
15948,150.3
15949,144.3
15950,130.7
15951,182.5
15955,114.8
15956,134.2
15957,157.7
15963,182.8
15965,138.9
15966,176.5
15967,179.6
15969,142.1
15970,134.2
15971,160.0
15972,119.0
15975,166.1
15978,118.8
15979,156.3
15982,147.0
15984,147.1
15985,129.3
15990,126.8
15991,156.0
15992,136.7
15993,133.9
15994,167.6
15997,131.7
16000,168.4
16006,142.7
16009,176.5
16011,154.8
16012,155.9
16020,143.0
16021,154.9
16024,134.2
16029,127.8
16031,164.2
16034,178.5
16035,113.7
16037,181.7
16038,126.5
16039,136.3
16040,147.8
16041,123.8
16043,172.6
16045,139.7
16047,124.4
16048,112.8
16050,166.9
16051,134.5
16052,152.2
16053,145.7
16055,157.9
16057,122.9
16058,131.1
16061,119.5
16063,131.1
16064,150.6
16065,142.0
16066,165.9
16067,132.9
16072,159.7
16077,122.6
16078,134.2
16082,138.6
16086,151.5
16087,152.6
16088,149.0
16089,129.1
16090,159.1
16092,142.0
16093,113.7
16094,116.2
16095,157.5
16096,148.0
16097,112.5
16099,110.6
16102,125.3
16103,178.2
16106,142.0
16108,151.5
16109,115.4
16113,174.1
16115,175.3
16117,142.9
16119,144.5
16121,128.2
16123,169.6
16124,149.5
16126,140.0
16128,166.0
16129,117.8
16130,135.9
16132,129.6
16133,142.0
16140,141.3
16142,111.2
16144,128.4
16145,121.6
16146,147.1
16151,139.5
16153,156.1
16154,142.8
16155,174.2
16159,144.5
16160,179.9
16161,171.9
16168,140.2
16173,162.5
16174,144.5
16175,147.2
16176,113.6
16177,135.0
16180,125.5
16182,179.4
16184,173.9
16186,132.4
16187,165.1
16188,153.0
16191,118.0
16194,161.8
16196,163.3
16198,171.6
16199,136.2
16200,160.0
16201,143.3
16204,157.0
16205,161.2
16206,170.2
16209,137.3
16210,113.2
16213,183.6
16214,139.4
16215,176.0
16220,181.2
16224,182.7
16226,164.2
16227,165.1
16230,173.7
16231,158.7
16232,159.2
16237,151.8
16240,174.6
16241,154.8
16243,160.5
16245,144.0
16246,175.6
16249,151.2
16251,116.7
16254,134.2
16256,121.9
16257,123.7
16258,129.5
16262,180.7
16265,137.8
16266,145.8
16267,148.4
16268,167.7
16269,131.6
16270,139.7
16271,143.4
16274,155.7
16277,172.4
16280,172.3
16281,154.8
16282,172.3
16283,116.2
16284,168.6
16288,152.2
16290,152.7
16292,117.5
16293,147.9
16294,134.2
16299,144.2
16301,138.1
16302,115.1
16303,152.9
16305,161.6
16309,162.5
16311,132.4
16312,169.5
16313,155.3
16314,122.4
16318,125.5
16320,117.5
16321,178.8
16322,147.1
16323,156.5
16324,123.3
16326,167.0
16327,167.0
16328,148.8
16334,158.3
16335,136.8
16337,159.7
16340,145.7
16341,143.0
16342,142.6
16344,138.4
16345,133.9
16347,177.3
16348,146.1
16349,160.0
16353,137.1
16357,132.7
16358,156.0
16359,158.6
16362,139.4
16363,163.1
16364,157.9
16366,132.9
16367,183.8
16370,142.4
16371,145.3
16375,146.9
16376,126.5
16378,135.2
16381,140.8
16382,152.3
16383,181.3
16388,164.4
16390,157.4
16391,172.3
16393,129.9
16396,155.9
16398,177.3
16400,146.5
16403,144.5
16410,181.0
16415,162.0
16416,139.4
16417,132.4
16419,118.4
16421,125.8
16423,154.5
16425,145.0
16426,184.6
16429,159.8
16430,152.2
16431,118.2
16440,181.2
16443,158.3
16444,142.0
16447,144.7
16449,174.4
16450,167.5
16452,156.1
16453,129.7
16455,159.7
16457,142.0
16458,171.4
16459,159.4
16460,162.1
16462,146.3
16463,123.0
16465,180.7
16466,145.1
16468,147.5
16469,140.1
16471,144.5
16474,117.8
16475,135.7
16476,158.6
16477,164.8
16478,146.6
16480,117.1
16481,150.0
16484,147.1
16486,175.7
16487,138.1
16488,126.0
16489,159.9
16492,121.4
16493,174.6
16497,147.1
16502,150.2
16506,182.5
16507,136.2
16509,111.3
16512,139.4
16513,168.1
16514,166.2
16515,168.9
16517,172.8
16518,146.4
16521,154.8
16522,172.5
16525,152.2
16529,137.2
16530,147.6
16535,159.0
16538,154.8
16539,140.2
16540,121.7
16543,177.3
16544,149.8
16545,178.2
16546,157.1
16547,118.8
16550,124.5
16551,142.0
16554,122.6
16556,126.0
16557,165.2
16558,169.0
16559,157.9
16561,143.3
16563,132.5
16566,165.1
16569,144.9
16570,128.9
16573,170.5
16575,184.8
16578,143.3
16579,149.7
16580,163.7
16591,129.1
16592,134.2
16596,183.4
16600,160.2
16601,146.7
16602,170.7
16604,171.5
16606,170.2
16609,128.4
16610,131.8
16611,151.7
16613,163.5
16617,152.9
16619,154.8
16622,184.6
16623,148.9
16626,126.3
16627,180.4
16628,138.0
16629,167.5
16631,112.8
16633,134.2
16641,144.6
16642,124.3
16646,171.8
16647,162.5
16651,117.6
16653,115.8
16656,136.1
16657,160.8
16659,159.4
16660,144.5
16663,112.9
16665,117.9
16668,166.2
16671,180.5
16673,134.2
16676,144.5
16677,169.3
16679,130.2
16682,112.5
16685,150.7
16687,160.0
16691,162.6
16692,123.4
16695,149.7
16696,133.5
16697,117.3
16698,177.8
16699,121.7
16700,166.2
16701,139.4
16702,137.4
16703,170.8
16707,127.7
16711,151.2
16712,169.4
16714,126.5
16719,153.9
16720,143.4
16721,160.8
16722,136.5
16723,124.8
16725,142.1
16726,185.0
16727,137.6
16728,149.7
16729,160.5
16732,136.7
16733,149.5
16741,131.7
16745,140.6
16746,146.7
16749,144.1
16754,129.1
16756,120.0
16757,150.4
16758,130.3
16760,116.4
16764,126.0
16766,170.1
16768,171.5
16769,149.7
16778,166.5
16779,155.9
16780,115.6
16782,134.2
16783,124.2
16784,155.3
16786,178.3
16789,133.2
16790,146.9
16792,133.2
16793,156.1
16795,129.1
16796,142.4
16797,173.8
16800,179.2
16802,133.5
16803,163.4
16804,164.5
16806,141.1
16808,144.5
16809,167.6
16810,176.3
16811,181.3
16813,130.1
16815,182.2
16817,124.7
16818,167.6
16821,183.0
16822,147.1
16826,160.1
16832,159.8
16834,178.6
16835,160.5
16836,144.5
16837,127.1
16838,137.3
16839,157.2
16842,173.3
16844,152.1
16846,121.5
16849,144.5
16850,171.8
16852,148.5
16855,183.1
16859,135.7
16860,181.1
16861,160.2
16863,147.1
16864,127.8
16868,164.7
16873,170.7
16876,147.1
16881,180.9
16883,163.1
16887,170.0
16889,139.4
16891,120.6
16892,148.0
16894,167.3
16895,139.3
16896,180.4
16898,117.8
16899,170.8
16900,160.4
16904,160.0
16912,181.8
16915,169.8
16917,149.7
16918,122.5
16920,129.8
16921,159.3
16922,134.2
16924,121.9
16928,138.3
16929,179.2
16930,139.4
16934,153.9
16935,169.2
16936,151.0
16939,170.5
16940,121.0
16942,135.0
16943,156.4
16944,167.7
16950,133.0
16955,183.3
16957,154.8
16959,166.9
16961,143.9
16962,129.8
16963,157.2
16965,138.3
16966,137.9
16967,126.1
16968,138.1
16969,171.4
16971,139.4
16973,131.0
16978,179.3
16979,118.2
16980,117.3
16981,167.9
16982,149.9
16983,173.8
16985,170.2
16987,177.9
16993,135.7
16996,126.0
16998,152.2
17000,179.1
17003,124.1
17007,182.5
17008,161.5
17011,131.7
17012,120.8
17013,125.5
17014,171.9
17015,158.3
17016,117.5
17017,154.5
17018,143.3
17019,181.3
17021,142.2
17022,132.6
17024,117.5
17025,162.5
17027,168.4
17028,131.0
17032,147.2
17034,116.0
17037,138.7
17038,120.1
17039,154.8
17043,112.1
17044,115.6
17046,159.6
17052,136.8
17056,128.3
17060,128.2
17063,130.0
17065,165.1
17068,114.5
17069,117.3
17071,123.8
17075,122.7
17076,125.5
17079,144.5
17080,139.2
17082,124.7
17085,148.1
17087,175.9
17088,139.6
17089,131.8
17090,178.1
17091,113.5
17092,129.1
17093,153.0
17094,184.4
17099,159.6
17100,146.2
17102,118.1
17104,150.8
17105,168.2
17106,154.8
17109,138.3
17113,165.5
17114,138.0
17116,146.2
17117,159.1
17120,139.4
17121,161.7
17125,114.9
17126,141.2
17127,181.9
17129,147.4
17131,113.1
17133,134.2
17135,150.9
17140,173.4
17142,139.6
17143,113.7
17145,132.5
17146,149.7
17147,147.6
17148,171.0
17149,126.7
17151,127.0
17152,172.0
17153,122.1
17157,173.4
17160,139.4
17161,159.1
17162,169.7
17163,129.3
17165,142.2
17167,132.4
17168,154.2
17171,116.2
17174,134.2
17176,112.8
17181,163.8
17187,144.5
17189,161.4
17190,127.3
17192,161.1
17193,139.0
17195,178.4
17199,169.7
17201,149.7
17202,152.7
17203,182.4
17204,163.9
17206,166.3
17209,158.4
17211,127.2
17214,142.0
17215,119.8
17221,171.1
17222,184.9
17223,162.9
17225,154.7
17227,139.4
17228,161.2
17230,119.3
17232,115.2
17233,174.8
17234,151.9
17237,117.5
17239,139.8
17240,150.9
17242,152.2
17243,153.5
17244,144.8
17248,110.8
17249,130.8
17251,118.8
17253,134.9
17255,149.7
17256,128.5
17258,154.9
17259,157.8
17260,139.8
17262,120.4
17263,175.6
17264,181.4
17267,140.1
17268,142.0
17271,110.3
17275,123.1
17276,141.8
17278,165.1
17280,166.8
17281,151.3
17282,167.7
17283,148.3
17284,137.5
17285,130.7
17288,110.8
17289,174.9
17292,179.6
17294,127.4
17295,157.4
17298,168.0
17300,137.6
17303,127.3
17308,147.8
17309,136.8
17317,132.4
17318,161.2
17319,156.6
17322,116.2
17323,167.7
17324,140.6
17326,143.6
17327,176.4
17328,134.5
17330,116.3
17331,133.4
17335,178.9
17336,160.0
17337,138.3
17339,126.3
17343,161.8
17344,135.9
17346,111.9
17347,122.2
17349,134.2
17351,116.1
17354,113.5
17356,170.6
17362,165.1
17363,116.6
17364,178.3
17365,128.3
17366,116.5
17369,134.8
17370,148.5
17374,157.6
17376,163.0
17377,154.8
17383,152.5
17384,110.9
17385,126.5
17387,170.6
17390,134.2
17393,174.7
17398,144.0
17399,147.0
17400,147.0
17401,174.3
17403,165.1
17406,162.4
17407,124.4
17409,135.9
17410,147.5
17411,178.1
17412,177.0
17414,132.8
17415,119.7
17417,149.7
17420,178.3
17423,162.4
17426,110.4
17428,117.0
17430,139.4
17431,136.8
17436,150.6
17437,127.4
17439,157.6
17440,151.6
17442,134.1
17444,154.8
17445,127.9
17446,138.9
17447,129.4
17451,166.7
17454,144.0
17458,139.4
17461,172.5
17462,144.3
17463,174.9
17464,142.7
17465,114.5
17468,139.1
17469,126.8
17470,134.3
17471,134.2
17472,181.6
17475,173.2
17476,179.8
17482,169.9
17483,144.1
17484,162.5
17485,157.6
17486,173.2
17488,173.2
17491,157.9
17493,145.4
17497,127.7
17498,127.1
17499,144.5
17502,123.3
17503,153.5
17504,141.5
17505,172.2
17506,164.4
17507,135.0
17512,136.8
17513,166.6
17515,147.5
17518,183.5
17522,184.6
17524,135.5
17525,149.7
17526,168.5
17527,132.7
17532,131.1
17534,150.0
17536,113.2
17539,142.0
17542,132.8
17546,175.5
17549,142.9
17552,144.5
17554,170.1
17557,173.3
17559,150.6
17561,184.3
17563,139.0
17565,174.2
17566,147.1
17571,173.4
17572,122.2
17573,113.9
17574,154.6
17575,173.7
17578,176.8
17580,152.2
17581,137.0
17583,153.5
17584,176.7
17586,170.2
17589,141.0
17590,118.8
17593,147.1
17594,118.1
17597,146.3
17599,184.5
17600,145.4
17602,133.0
17603,143.7
17604,131.7
17605,165.7
17606,139.4
17614,141.4
17616,144.6
17619,160.0
17620,148.4
17621,169.3
17622,121.4
17625,139.1
17626,153.2
17630,132.2
17634,162.5
17636,135.3
17637,180.7
17640,161.0
17643,166.9
17645,153.5
17646,155.7
17647,142.0
17648,129.3
17649,161.4
17650,149.6
17651,136.2
17652,141.3
17654,173.2
17655,138.4
17656,154.3
17660,165.1
17662,154.8
17668,179.2
17670,181.5
17671,163.8
17672,140.6
17674,157.4
17675,126.4
17676,119.9
17677,140.7
17678,151.1
17680,112.5
17681,167.6
17682,143.2
17683,143.1
17684,144.2
17685,154.7
17686,145.1
17687,144.5
17688,166.8
17689,125.4
17690,152.4
17696,171.9
17697,120.8
17698,126.7
17699,145.1
17700,123.8
17701,178.0
17703,165.9
17704,166.9
17705,143.3
17706,160.3
17709,116.4
17710,181.0
17712,166.9
17713,184.1
17715,165.1
17717,119.2
17723,151.5
17728,147.1
17731,141.5
17735,124.1
17736,169.5
17737,140.5
17740,182.5
17741,172.8
17742,159.0
17746,122.6
17750,125.1
17751,127.4
17752,161.3
17755,160.0
17756,168.2
17757,113.9
17758,120.7
17760,156.3
17762,179.7
17763,128.9
17766,138.4
17767,169.1
17768,171.1
17769,144.5
17770,176.7
17771,172.6
17772,181.4
17773,138.3
17774,183.9
17775,129.4
17776,127.0
17779,178.8
17780,139.9
17782,172.8
17783,135.8
17784,119.8
17788,135.6
17789,150.3
17791,139.4
17793,168.4
17795,154.9
17796,149.7
17800,116.8
17801,147.9
17802,128.2
17807,163.7
17809,134.2
17810,113.6
17812,168.9
17813,174.6
17816,129.9
17818,149.8
17819,172.1
17820,135.2
17822,157.4
17823,149.9
17828,168.5
17830,135.5
17836,118.0
17837,144.5
17841,182.1
17842,157.4
17850,139.4
17852,167.4
17853,149.0
17856,110.7
17858,122.5
17859,136.3
17860,133.3
17861,120.7
17862,170.2
17863,160.0
17864,134.3
17867,183.1
17868,140.8
17870,184.5
17871,182.8
17872,137.4
17873,170.1
17874,146.0
17876,142.0
17885,174.5
17886,181.3
17889,151.3
17890,139.4
17892,157.8
17894,143.5
17897,139.8
17901,160.9
17904,152.2
17905,113.2
17908,164.2
17909,181.3
17910,122.7
17911,128.7
17912,115.6
17914,146.0
17915,177.6
17916,117.0
17917,157.4
17918,182.7
17919,177.8
17920,152.0
17922,182.3
17923,179.2
17926,181.4
17927,168.2
17930,159.6
17931,160.0
17934,150.5
17937,145.4
17938,149.3
17942,146.3
17943,179.0
17944,157.4
17945,149.0
17949,125.2
17950,169.8
17952,115.7
17953,170.1
17955,170.4
17957,160.0
17960,152.6
17963,169.8
17965,123.0
17967,171.3
17969,145.5
17972,160.0
17973,160.0
17974,139.4
17977,132.5
17978,142.0
17980,127.6
17981,167.0
17984,150.6
17985,152.2
17987,148.0
17989,145.3
17990,111.5
17993,115.9
17998,172.8
18000,113.1
18001,149.5
18005,133.4
18008,161.4
18009,121.3
18012,160.0
18013,111.6
18016,161.1
18017,164.8
18022,159.2
18023,110.3
18025,139.4
18026,164.2
18029,146.7
18031,132.3
18032,181.0
18038,115.0
18039,167.7
18040,130.7
18041,147.4
18042,120.3
18049,174.9
18053,162.5
18055,115.1
18058,175.1
18060,130.2
18062,141.1
18063,175.6
18066,147.1
18067,134.0
18069,165.5
18072,168.5
18076,136.7
18077,140.4
18078,161.0
18079,175.4
18082,143.5
18084,130.7
18086,171.9
18089,127.2
18091,164.1
18092,114.2
18093,157.4
18094,150.1
18107,139.4
18108,167.5
18110,131.9
18111,150.7
18114,180.4
18117,124.1
18119,111.0
18120,172.8
18122,182.6
18123,148.1
18125,147.0
18127,177.7
18128,161.7
18134,152.2
18135,126.2
18136,150.1
18138,158.3
18139,142.0
18144,169.7
18145,174.8
18147,144.5
18148,135.2
18151,183.3
18152,121.5
18153,120.1
18159,146.4
18160,172.8
18164,130.1
18165,159.8
18166,135.7
18167,162.8
18174,152.2
18176,156.6
18177,144.5
18179,117.2
18182,113.3
18183,118.0
18186,142.4
18188,139.4
18191,155.7
18193,173.5
18194,146.3
18196,119.9
18197,156.3
18199,136.3
18200,152.9
18201,167.7
18203,113.5
18214,152.2
18215,173.6
18216,121.6
18218,164.3
18228,142.0
18229,136.5
18230,127.9
18231,162.9
18233,182.7
18239,143.7
18241,110.3
18242,157.4
18245,130.1
18251,158.6
18252,124.8
18255,147.1
18258,145.7
18259,135.5
18265,122.1
18266,178.2
18269,154.8
18275,135.8
18281,182.3
18282,160.0
18284,157.4
18288,137.9
18289,134.2
18290,119.4
18292,142.2
18293,125.8
18295,155.3
18296,160.0
18300,143.3
18310,157.4
18313,131.2
18314,122.4
18317,111.5
18318,169.1
18319,135.1
18323,152.2
18324,180.2
18326,132.7
18327,174.4
18328,184.6
18331,182.2
18333,178.6
18334,132.4
18335,170.8
18336,167.7
18340,172.0
18343,153.7
18345,121.9
18346,119.8
18350,165.1
18353,155.1
18355,148.8
18356,150.9
18358,162.0
18359,123.3
18364,147.1
18365,159.0
18368,181.4
18377,170.2
18378,182.6
18385,178.6
18386,164.6
18388,127.7
18391,165.1
18392,179.3
18398,142.6
18400,169.2
18404,149.7
18410,146.0
18412,176.1
18414,129.3
18416,124.3
18417,180.5
18424,132.9
18426,157.2
18428,135.7
18430,132.8
18432,167.7
18433,177.3
18435,148.9
18436,122.4
18440,183.1
18442,138.2
18445,144.5
18446,145.7
18449,135.3
18451,140.5
18454,163.3
18455,133.1
18456,177.1
18457,175.0
18458,172.8
18459,158.6
18460,172.6
18464,156.0
18465,152.9
18467,167.2
18471,157.4
18472,127.0
18475,179.6
18480,158.5
18481,158.1
18483,119.4
18484,145.3
18485,149.7
18488,174.8
18492,182.1
18493,157.0
18497,164.1
18499,178.0
18501,152.6
18502,110.7
18505,114.9
18508,162.4
18509,146.2
18510,145.8
18512,157.4
18513,119.6
18515,175.9
18517,140.4
18521,162.1
18524,182.7
18526,136.8
18529,172.5
18531,119.4
18532,129.6
18533,121.5
18534,112.5
18535,140.9
18536,155.0
18538,114.0
18539,167.7
18541,167.0
18544,163.8
18549,130.1
18550,172.3
18551,183.1
18552,149.7
18554,178.4
18555,160.9
18556,121.1
18559,128.1
18561,180.8
18562,118.5
18565,144.5
18566,171.5
18567,142.0
18568,139.7
18570,178.4
18572,129.4
18573,182.0
18575,134.6
18577,152.9
18580,160.0
18587,169.1
18591,175.9
18593,147.1
18594,157.6
18595,149.1
18596,119.4
18598,155.8
18599,126.7
18602,183.4
18606,155.8
18607,144.5
18608,183.9
18609,130.5
18610,170.1
18615,122.3
18619,153.1
18620,160.0
18623,157.8
18632,172.6
18634,157.4
18635,182.2
18636,158.6
18638,134.2
18641,141.3
18647,141.2
18648,154.8
18651,162.0
18654,169.1
18655,169.8
18656,116.2
18658,136.5
18660,174.7
18661,152.2
18662,111.5
18667,122.7
18670,142.3
18671,178.5
18673,165.6
18674,160.0
18676,144.9
18677,168.5
18678,140.2
18679,110.8
18680,164.0
18681,120.7
18683,152.2
18684,153.1
18687,162.7
18688,157.4
18689,157.7
18690,142.4
18692,173.2
18693,140.5
18694,174.8
18697,158.4
18698,132.6
18699,143.9
18701,146.7
18702,157.4
18706,173.2
18709,162.9
18710,133.9
18712,159.4
18714,113.9
18715,170.2
18716,179.1
18718,123.2
18720,128.6
18721,140.0
18722,147.0
18723,120.8
18728,162.5
18731,162.9
18732,114.6
18733,142.5
18742,144.5
18743,181.3
18745,170.9
18747,130.1
18749,152.8
18751,156.6
18752,132.9
18755,172.8
18757,127.3
18758,153.1
18763,154.1
18767,130.8
18769,165.1
18772,174.0
18773,165.5
18774,160.4
18777,174.9
18778,169.3
18781,161.7
18783,144.5
18784,123.1
18785,145.2
18788,162.0
18789,135.1
18790,124.9
18791,172.0
18792,171.9
18796,170.2
18797,117.4
18798,126.6
18800,111.5
18801,146.1
18803,130.8
18806,128.6
18809,157.4
18810,177.4
18811,160.9
18812,113.8
18813,183.9
18814,141.7
18816,117.6
18817,123.4
18822,132.0
18823,144.5
18827,145.7
18829,129.0
18834,157.5
18835,150.4
18836,124.3
18837,175.4
18839,171.4
18840,121.8
18846,128.1
18847,136.0
18849,134.3
18850,162.5
18854,115.4
18855,113.6
18857,128.6
18861,119.9
18863,117.2
18864,142.0
18865,112.1
18867,163.2
18868,137.4
18871,136.7
18872,150.1
18875,147.4
18877,167.7
18879,170.3
18880,181.7
18881,130.0
18884,184.8
18888,113.9
18889,121.4
18890,149.7
18891,177.2
18892,171.3
18893,160.6
18894,181.0
18898,139.5
18900,115.3
18902,154.5
18904,121.7
18905,134.2
18906,171.0
18907,174.2
18909,119.9
18911,127.4
18915,170.1
18917,112.7
18918,162.5
18919,146.5
18920,148.8
18924,154.0
18925,173.3
18931,147.1
18934,171.7
18937,165.0
18941,176.4
18943,177.8
18945,136.8
18948,136.2
18949,165.7
18950,164.7
18951,133.3
18953,182.1
18956,179.9
18957,183.1
18958,154.8
18960,156.2
18961,175.6
18963,118.3
18964,161.9
18966,174.4
18967,133.6
18968,147.2
18969,119.1
18971,179.9
18972,147.1
18975,142.4
18976,127.3
18980,181.9
18981,157.4
18982,119.9
18984,130.8
18985,147.1
18986,128.5
18989,173.0
18990,142.3
18992,165.9
18993,120.1
18996,173.9
18999,149.7
19000,160.4
19001,175.4
19002,159.3
19003,176.9
19004,163.7
19008,127.8
19009,119.9
19010,175.6
19011,110.1
19012,149.7
19015,142.7
19018,115.5
19020,113.1
19023,121.5
19024,133.6
19025,157.4
19029,152.2
19033,138.9
19034,170.7
19036,160.1
19039,141.5
19040,157.4
19042,143.4
19043,175.8
19045,133.0
19049,161.4
19050,162.0
19053,167.7
19058,141.7
19062,178.5
19066,165.1
19067,147.9
19068,165.9
19069,154.5
19070,118.2
19071,115.9
19072,131.3
19075,166.6
19076,165.0
19079,173.7
19080,149.7
19082,165.0
19083,155.0
19084,146.4
19085,148.5
19087,147.6
19088,117.4
19091,154.5
19092,112.9
19093,167.7
19095,169.9
19098,177.2
19100,159.2
19101,138.9
19103,128.2
19105,149.2
19107,165.1
19109,140.6
19112,148.1
19114,163.1
19119,165.0
19121,142.0
19122,116.6
19124,171.3
19126,136.5
19127,141.5
19129,154.7
19130,184.5
19131,157.1
19134,170.2
19136,159.6
19139,138.6
19141,184.5
19143,166.9
19145,150.2
19146,122.0
19147,157.4
19148,145.9
19152,149.3
19154,110.9
19157,181.2
19161,163.6
19162,136.8
19164,121.7
19167,110.1
19169,157.9
19172,151.5
19173,160.5
19175,167.7
19176,180.8
19178,131.8
19179,121.6
19182,124.5
19183,125.8
19184,141.5
19185,111.3
19187,148.7
19188,154.8
19189,164.5
19193,163.4
19194,112.2
19195,150.0
19197,113.7
19198,140.0
19201,143.3
19202,136.8
19209,176.3
19210,167.0
19212,153.8
19215,165.1
19218,184.1
19219,137.8
19220,158.1
19225,136.0
19229,144.5
19231,131.3
19232,151.1
19236,140.9
19237,176.9
19241,129.5
19243,131.7
19246,146.1
19250,152.3
19252,180.8
19253,138.4
19255,148.6
19256,157.4
19261,141.3
19263,137.9
19265,175.1
19266,135.3
19267,146.9
19268,117.6
19269,136.8
19272,141.9
19277,136.6
19278,113.4
19279,160.2
19281,169.7
19282,129.1
19286,171.6
19292,125.5
19293,132.8
19294,179.5
19297,149.7
19303,116.7
19307,113.7
19310,134.2
19311,156.9
19317,142.9
19318,154.1
19320,121.0
19323,134.2
19324,164.0
19326,120.1
19327,149.7
19328,182.1
19329,142.1
19337,149.7
19338,166.9
19340,126.0
19343,167.8
19344,162.8
19346,146.2
19347,128.1
19350,139.4
19354,160.8
19355,117.5
19357,147.1
19359,151.8
19362,118.1
19364,129.1
19368,168.7
19372,173.0
19374,118.1
19376,131.2
19377,146.0
19378,136.8
19379,121.5
19381,173.9
19384,120.8
19386,159.9
19387,120.4
19389,138.1
19391,142.0
19397,171.4
19399,135.3
19401,111.8
19402,114.3
19403,135.7
19404,144.5
19411,154.2
19413,112.4
19415,184.5
19416,164.0
19417,159.9
19418,144.5
19419,154.0
19421,151.3
19423,125.7
19424,173.5
19427,140.1
19431,144.4
19432,157.4
19433,149.0
19434,145.9
19436,133.2
19438,117.3
19440,126.1
19441,125.2
19443,169.5
19445,147.1
19446,131.2
19447,149.5
19449,167.9
19452,114.5
19455,112.2
19456,116.0
19457,126.8
19459,136.8
19461,121.8
19462,133.0
19464,180.3
19465,183.9
19466,146.9
19469,183.0
19470,130.8
19472,170.2
19474,142.8
19475,152.6
19476,182.1
19482,141.0
19484,184.3
19485,157.4
19487,141.0
19489,139.1
19491,148.4
19494,147.2
19495,124.6
19499,117.5
19500,136.8
19502,155.4
19504,138.3
19505,120.9
19506,121.6
19507,168.3
19510,157.4
19511,114.2
19512,122.4
19513,162.5
19515,128.7
19520,119.7
19521,177.2
19522,131.5
19523,137.9
19524,165.8
19526,152.2
19527,143.9
19528,173.6
19532,181.5
19535,123.8
19536,115.9
19539,134.2
19540,137.7
19541,152.3
19542,113.3
19544,129.7
19545,179.2
19547,173.8
19548,122.5
19550,174.7
19553,165.1
19554,176.2
19556,110.9
19558,115.2
19561,140.2
19563,113.3
19565,150.7
19567,144.5
19569,118.6
19570,123.5
19571,153.4
19572,146.6
19573,151.5
19574,167.8
19575,146.4
19576,156.1
19579,153.8
19580,123.9
19581,138.6
19582,124.5
19583,116.2
19586,120.5
19588,139.3
19594,154.8
19597,134.2
19601,151.4
19604,170.9
19605,174.3
19607,142.0
19609,132.7
19610,121.6
19611,120.9
19616,169.9
19618,129.5
19619,151.6
19620,131.7
19621,128.8
19622,150.8
19624,139.5
19626,164.3
19628,128.3
19629,144.6
19631,144.7
19632,132.5
19635,157.4
19636,113.1
19639,180.7
19641,172.8
19642,175.4
19643,178.5
19644,112.4
19645,121.4
19647,160.9
19648,136.8
19649,157.3
19650,170.9
19652,179.0
19654,169.1
19657,155.3
19658,128.6
19659,153.0
19660,110.5
19661,123.9
19662,116.4
19663,129.8
19667,179.8
19671,169.1
19673,175.5
19674,152.6
19675,147.1
19676,165.8
19678,172.3
19682,171.1
19684,170.3
19688,139.4
19690,156.2
19691,165.0
19694,173.5
19696,138.4
19697,159.3
19699,154.9
19701,176.6
19702,129.1
19704,164.5
19705,140.7
19706,151.4
19707,168.3
19709,131.7
19711,182.7
19712,126.5
19714,115.9
19716,142.0
19718,117.0
19729,134.2
19732,166.7
19733,148.7
19736,118.3
19738,174.3
19739,174.1
19742,134.2
19744,157.5
19745,133.4
19746,181.2
19748,135.6
19750,116.4
19752,162.8
19753,121.7
19756,142.0
19759,157.7
19760,143.4
19761,154.0
19763,110.2
19764,133.4
19765,112.9
19766,137.1
19768,110.1
19770,149.7
19771,165.9
19773,169.4
19776,170.5
19777,177.7
19779,144.0
19781,132.2
19783,142.0
19785,171.3
19787,144.4
19789,126.0
19790,111.6
19791,117.8
19792,170.7
19793,136.5
19794,178.3
19795,130.4
19796,131.7
19797,145.5
19798,181.0
19800,121.4
19804,134.6
19807,183.3
19808,155.0
19810,149.7
19811,169.3
19815,144.1
19817,130.1
19818,126.7
19819,174.3
19820,180.3
19822,129.9
19823,144.5
19824,156.4
19825,153.5
19826,179.1
19828,149.4
19832,110.3
19833,180.7
19834,128.5
19835,118.0
19837,136.8
19838,127.2
19839,166.1
19843,184.9
19845,131.7
19847,123.9
19848,157.3
19849,182.3
19851,162.5
19856,115.3
19857,172.5
19858,111.3
19859,122.6
19863,166.9
19864,144.5
19865,143.8
19867,127.5
19868,114.9
19869,158.4
19870,113.4
19872,146.7
19874,181.1
19876,128.1
19877,123.9
19879,161.4
19881,112.7
19882,112.0
19884,150.0
19886,140.5
19891,157.4
19895,134.9
19896,140.5
19901,117.1
19904,134.2
19905,157.4
19907,139.7
19908,139.1
19910,131.6
19911,114.6
19914,143.1
19915,181.3
19917,140.0
19918,136.8
19920,155.0
19921,175.8
19922,138.4
19923,157.7
19926,153.8
19929,148.9
19932,165.1
19934,130.4
19935,128.9
19936,115.2
19939,110.9
19940,158.7
19941,140.4
19943,118.0
19944,184.1
19945,149.7
19946,179.1
19950,144.2
19954,145.1
19955,166.5
19956,143.3
19958,129.1
19963,181.2
19965,167.4
19967,126.6
19973,157.4
19974,146.0
19977,153.1
19982,133.2
19983,124.8
19986,142.0
19990,125.1
19992,184.3
19995,112.8
19996,149.6
19999,126.5
20000,118.3
20003,176.4
20004,143.2
20007,153.0
20009,166.9
20011,172.4
20012,184.5
20013,147.1
20018,130.9
20021,111.8
20022,179.1
20023,130.1
20024,132.0
20026,180.9
20027,136.8
20028,170.8
20031,135.1
20037,154.4
20040,126.5
20042,143.6
20046,127.1
20049,127.5
20051,159.6
20052,132.7
20053,152.3
20054,147.1
20057,140.5
20058,162.6
20059,135.7
20060,180.5
20064,127.2
20066,183.9
20067,136.8
20071,146.0
20072,161.0
20075,171.4
20077,164.5
20080,131.7
20081,137.0
20084,178.0
20085,175.7
20086,166.8
20088,133.3
20089,162.1
20091,153.9
20094,134.2
20096,123.5
20097,157.0
20098,183.5
20101,126.1
20102,138.9
20103,118.4
20105,165.5
20106,145.8
20108,134.2
20109,172.4
20110,127.7
20112,184.6
20113,126.2
20115,152.6
20117,132.8
20118,142.1
20121,144.5
20123,178.5
20125,130.5
20126,147.1
20128,164.2
20129,179.7
20130,124.7
20133,166.0
20134,147.1
20137,152.0
20139,136.2
20140,149.5
20141,174.3
20143,182.7
20148,149.7
20149,128.3
20151,156.6
20152,174.9
20153,159.4
20155,139.1
20158,144.0
20160,116.9
20161,162.6
20162,142.0
20163,184.3
20164,181.9
20165,130.5
20167,125.1
20171,119.3
20173,167.4
20174,178.8
20175,131.7
20181,139.3
20183,180.3
20186,142.3
20187,137.4
20189,152.2
20190,151.9
20192,117.6
20193,175.5
20195,171.9
20196,144.7
20199,119.4
20202,149.7
20204,176.1
20206,119.1
20207,120.2
20209,111.8
20210,162.3
20211,154.1
20213,155.9
20214,180.1
20215,129.1
20218,137.8
20220,129.7
20223,132.7
20225,125.6
20226,154.4
20227,162.0
20228,143.6
20229,117.6
20230,154.8
20232,132.2
20234,183.3
20235,158.4
20236,137.0
20237,110.4
20243,149.7
20244,175.5
20245,154.9
20246,127.8
20248,159.6
20249,145.7
20251,173.0
20252,117.4
20253,150.6
20254,139.6
20255,181.5
20256,134.2
20260,153.7
20261,121.3
20262,134.2
20265,155.3
20267,173.9
20268,114.1
20270,165.1
20273,111.8
20275,179.3
20277,139.2
20279,114.0
20282,113.6
20283,144.5
20284,116.0
20285,181.9
20286,171.4
20291,160.0
20297,121.4
20302,166.2
20303,116.2
20304,134.5
20306,115.5
20309,115.3
20310,153.9
20311,152.2
20312,124.4
20315,129.3
20316,128.9
20321,167.8
20324,134.2
20328,156.8
20329,148.6
20335,120.4
20337,129.1
20341,116.6
20345,127.3
20346,113.5
20350,154.8
20353,165.5
20354,148.4
20355,159.1
20356,124.5
20358,174.0
20361,160.0
20363,138.2
20364,153.0
20365,134.2
20366,113.8
20368,161.0
20370,181.3
20371,178.5
20372,171.5
20374,174.0
20375,145.9
20378,118.8
20379,124.7
20380,179.9
20381,115.5
20382,129.8
20383,129.7
20384,119.4
20386,160.7
20388,180.8
20391,144.5
20393,145.0
20395,157.1
20397,157.1
20398,141.0
20404,177.6
20405,131.7
20406,137.2
20407,133.8
20409,141.4
20411,155.4
20412,119.5
20413,115.4
20417,184.3
20418,129.1
20419,151.0
20422,175.9
20424,111.6
20431,126.0
20432,139.4
20436,116.1
20437,164.5
20439,139.8
20440,131.6
20443,146.1
20446,134.2
20448,114.7
20449,157.2
20451,183.1
20452,126.8
20453,112.2
20456,124.2
20459,134.2
20460,129.6
20461,118.7
20462,157.1
20464,155.6
20465,141.8
20467,124.2
20470,178.5
20472,142.0
20473,155.7
20478,115.0
20480,173.6
20481,142.6
20482,111.1
20486,147.1
20487,128.3
20489,126.9
20490,153.3
20492,115.1
20493,152.9
20495,127.1
20496,123.5
20500,144.5
20505,135.7
20506,169.1
20507,150.0
20509,176.4
20510,157.6
20511,140.2
20513,134.2
20517,144.1
20518,117.6
20519,138.5
20520,155.2
20522,144.6
20527,147.1
20530,129.5
20532,173.4
20534,152.6
20538,173.4
20540,144.5
20541,122.4
20542,124.0
20544,123.9
20545,156.1
20547,167.1
20548,129.4
20551,161.3
20552,130.9
20553,136.8
20554,182.1
20556,170.1
20557,166.0
20558,142.2
20559,162.8
20561,150.7
20565,148.0
20566,175.4
20568,162.5
20570,176.3
20575,115.6
20578,168.7
20579,126.7
20580,113.5
20581,147.1
20583,129.3
20585,155.4
20586,149.0
20588,134.0
20589,147.5
20592,116.4
20593,135.0
20594,126.5
20595,162.7
20597,154.5
20598,159.5
20601,162.1
20606,167.8
20608,154.8
20609,178.2
20613,162.4
20617,122.5
20618,146.1
20619,145.9
20621,147.1
20625,155.7
20630,122.9
20632,136.7
20635,134.2
20636,117.3
20637,121.4
20639,163.5
20644,130.0
20645,139.3
20646,127.7
20647,122.6
20648,157.4
20651,140.9
20652,176.5
20654,182.5
20658,139.6
20659,111.7
20660,120.9
20661,134.3
20662,142.0
20663,132.3
20664,150.1
20665,110.5
20666,156.7
20670,135.9
20673,156.4
20674,152.6
20675,123.9
20676,146.7
20677,167.7
20680,164.1
20681,182.8
20682,169.7
20687,124.7
20688,154.8
20691,172.3
20692,183.3
20693,174.0
20694,133.7
20695,136.0
20697,152.3
20698,158.3
20700,121.0
20701,164.0
20703,142.0
20705,130.2
20706,116.4
20707,114.8
20708,160.7
20710,184.1
20711,182.2
20716,123.9
20717,144.2
20719,126.4
20722,149.6
20723,121.1
20728,136.6
20729,147.1
20732,181.8
20733,144.7
20735,142.3
20736,117.8
20738,137.4
20743,131.7
20745,151.7
20752,164.8
20754,122.0
20755,125.6
20756,121.4
20763,169.7
20764,150.7
20765,137.1
20768,181.7
20769,112.4
20770,144.5
20771,181.1
20775,162.5
20777,153.4
20779,122.5
20780,129.0
20784,134.2
20789,157.8
20791,120.4
20793,145.0
20794,182.1
20795,172.9
20797,123.9
20803,122.8
20805,118.3
20806,176.6
20810,134.2
20811,161.2
20814,149.1
20815,125.2
20819,122.9
20820,143.1
20821,163.7
20822,183.6
20824,131.7
20826,167.2
20828,131.8
20829,136.2
20833,123.8
20838,134.2
20839,145.4
20841,110.5
20843,156.3
20844,173.4
20845,151.3
20846,120.3
20848,145.2
20849,172.2
20850,115.2
20851,136.8
20852,161.1
20855,122.0
20856,156.0
20857,142.2
20860,176.6
20862,157.2
20865,139.4
20871,134.5
20872,121.8
20874,164.9
20875,134.5
