0,-12.4
1,21.4
2,0.5
4,21.2
5,18.5
6,4.6
7,3.0
9,14.9
10,31.3
11,20.7
12,39.1
14,23.6
17,5.6
19,22.1
20,26.5
21,3.5
23,15.9
25,26.8
26,15.1
27,12.6
31,19.3
32,33.9
33,13.6
36,18.7
37,12.3
40,17.6
41,0.5
42,3.2
43,25.5
46,16.5
48,5.5
50,41.6
51,19.4
54,9.7
56,22.3
58,18.5
59,14.7
60,-12.4
62,14.1
68,13.2
69,14.5
70,39.1
76,15.6
78,5.8
79,-12.4
80,27.2
82,13.5
84,24.3
86,19.1
90,39.1
91,16.5
94,10.5
95,19.5
97,7.5
99,-9.8
100,19.9
106,27.8
108,18.5
109,23.5
112,6.8
113,12.8
116,12.2
118,-9.8
121,26.8
122,13.0
123,12.6
129,7.3
130,36.5
131,24.7
133,17.4
137,5.4
140,-15.0
147,11.1
148,8.1
149,18.4
151,39.1
156,17.8
158,25.3
160,7.1
161,0.5
163,11.2
164,18.1
165,19.8
166,18.7
169,3.2
170,14.1
171,41.6
181,-2.1
185,10.4
187,6.4
192,36.5
194,24.5
201,3.6
202,13.3
203,9.7
206,14.9
210,22.1
211,13.3
212,31.3
213,17.8
214,27.9
215,4.6
217,13.9
223,21.0
226,18.5
227,15.1
229,17.1
230,16.8
231,17.9
232,10.7
233,26.2
235,20.0
236,9.4
237,11.8
239,18.4
241,17.3
242,13.1
243,18.5
245,4.9
247,15.7
249,23.1
251,23.0
253,21.0
256,24.2
257,5.8
259,14.6
261,10.2
263,14.5
264,26.6
265,15.9
268,11.6
272,13.0
273,17.5
275,15.9
276,23.2
277,5.7
284,12.5
285,8.2
286,22.4
294,15.9
295,16.3
296,9.6
297,10.9
298,22.8
299,7.2
300,19.0
305,10.8
306,23.2
307,24.9
309,11.2
310,7.3
313,23.9
314,27.7
315,8.2
317,7.1
318,6.5
319,14.5
321,12.9
322,10.2
325,10.8
330,18.0
335,10.8
339,4.5
341,24.0
344,7.5
345,16.4
346,3.0
349,9.3
351,16.0
355,10.8
358,22.3
360,3.0
363,24.9
365,5.6
366,17.3
367,7.7
368,19.6
369,4.0
371,15.1
372,19.7
374,13.3
375,16.5
376,8.9
377,17.9
378,14.8
381,23.8
382,21.6
383,5.6
384,11.7
385,8.2
386,27.6
388,8.9
389,6.7
391,27.0
393,22.7
395,13.3
396,25.9
397,4.2
404,8.3
405,5.6
409,20.0
410,21.0
412,22.0
414,15.9
415,13.1
417,17.8
419,24.7
421,17.9
424,8.2
425,19.1
429,3.4
432,27.2
433,11.9
434,15.9
436,10.3
440,16.9
444,10.8
447,22.2
450,7.8
451,14.0
452,16.5
454,8.2
461,24.1
462,27.8
464,13.3
466,13.8
469,17.2
470,15.6
471,15.0
473,21.0
475,10.8
476,3.5
479,6.0
480,14.8
481,13.4
484,19.1
485,3.0
486,3.9
487,5.8
488,21.8
489,13.7
491,25.2
494,13.3
496,6.1
499,8.8
500,26.0
503,10.6
504,5.6
508,27.2
509,6.3
512,17.9
513,4.1
514,13.3
515,15.1
516,19.6
521,26.9
522,17.0
524,26.2
525,8.2
526,23.5
527,12.4
530,10.5
532,4.0
534,15.9
535,6.5
537,22.5
540,5.9
541,25.8
544,8.2
547,18.3
548,13.9
549,14.9
553,13.3
558,10.9
560,13.6
561,7.5
564,10.8
566,26.5
569,7.5
573,18.2
574,10.8
576,11.3
579,8.4
580,18.9
581,19.5
584,3.0
585,14.0
587,3.7
591,15.5
593,15.0
594,10.8
595,12.7
596,16.5
597,20.1
598,11.1
601,17.9
602,18.0
603,11.2
605,3.0
612,5.4
613,23.6
614,10.8
617,8.8
619,8.6
620,3.2
621,23.8
622,27.2
623,10.2
624,5.6
625,21.2
628,8.5
629,7.2
631,23.7
633,15.9
638,25.5
642,4.4
643,21.5
644,5.6
645,12.9
647,19.5
651,26.7
652,26.3
653,13.3
655,4.7
657,20.9
664,5.6
665,14.8
668,26.1
670,19.0
671,18.8
672,14.6
673,15.9
674,6.9
676,22.3
678,16.4
680,16.6
681,9.2
682,11.7
683,11.0
684,10.8
685,19.9
688,16.9
690,7.3
694,10.8
695,17.6
698,10.6
699,20.0
703,11.7
704,0.5
705,20.8
706,10.8
708,13.2
709,27.4
710,11.2
711,12.2
713,10.8
715,5.1
716,4.7
721,11.4
723,4.3
724,3.0
725,24.3
727,4.2
729,10.7
730,5.3
731,14.2
734,10.8
738,10.7
744,5.6
745,14.8
746,22.1
751,19.0
753,13.3
754,11.9
755,6.5
756,14.0
758,16.2
763,8.2
764,21.6
765,21.3
766,5.8
767,22.7
769,14.5
773,13.3
775,11.9
776,10.5
777,23.1
778,17.3
779,8.0
781,10.2
783,8.2
784,25.5
785,8.1
786,11.3
788,15.2
790,16.4
791,8.6
793,13.3
798,6.1
800,8.4
801,5.1
803,10.8
806,22.7
809,20.2
810,9.0
811,19.1
812,26.0
814,8.2
818,27.5
821,13.7
822,3.9
823,10.8
829,14.9
832,16.4
833,10.8
836,7.4
839,25.8
840,4.7
842,22.9
843,3.0
846,15.0
847,14.9
850,3.2
851,23.7
852,10.8
853,13.9
855,10.9
858,4.6
859,7.5
862,14.1
864,5.6
865,10.6
867,11.2
869,19.5
870,26.2
872,21.2
873,13.3
877,15.1
879,23.1
880,15.8
883,5.6
885,5.5
888,17.1
892,13.3
893,5.7
894,13.6
895,15.0
896,10.3
897,24.7
899,15.4
901,21.4
903,8.2
905,14.1
907,12.5
910,7.1
911,23.2
912,13.3
915,17.7
921,4.6
922,10.8
923,8.2
925,8.2
928,12.9
929,17.7
932,15.9
934,17.4
935,25.2
936,18.7
937,13.8
941,27.3
943,10.8
946,11.5
948,18.2
950,17.4
952,22.8
953,8.2
956,20.2
959,5.8
961,16.3
962,10.8
963,16.9
968,15.0
970,17.4
972,8.2
973,16.3
975,8.8
981,26.3
982,10.8
983,20.7
986,7.1
989,20.6
991,16.5
993,13.3
994,13.2
998,16.1
999,25.6
1000,7.3
1001,10.4
1002,9.9
1003,3.0
1004,26.4
1007,22.4
1008,10.4
1009,21.8
1010,25.5
1013,5.6
1017,19.7
1018,21.1
1020,17.6
1022,14.0
1024,-2.1
1025,17.0
1026,24.9
1027,23.6
1028,25.2
1031,11.2
1032,20.7
1034,11.7
1035,-7.2
1037,16.0
1038,26.6
1039,21.5
1040,24.1
1041,4.3
1042,6.6
1046,41.6
1049,14.0
1051,17.6
1052,21.3
1058,0.5
1062,18.2
1063,25.4
1066,24.1
1067,24.0
1069,36.5
1073,23.5
1075,10.5
1076,16.5
1078,19.0
1079,25.7
1080,18.5
1081,14.3
1086,5.0
1087,3.4
1090,11.2
1091,15.9
1093,17.5
1094,10.5
1097,27.1
1098,26.1
1100,23.3
1102,5.6
1103,22.7
1111,22.9
1113,3.0
1116,8.2
1121,15.4
1122,24.8
1124,-2.1
1125,16.1
1128,12.8
1129,16.1
1131,5.1
1134,21.2
1135,-9.8
1136,19.0
1139,8.2
1140,15.6
1143,21.8
1144,24.2
1145,5.9
1146,41.6
1149,5.0
1150,9.1
1153,27.7
1154,15.3
1158,3.0
1159,16.5
1161,9.9
1162,25.9
1164,17.4
1166,25.2
1167,3.6
1168,33.9
1173,22.9
1174,19.4
1178,24.7
1179,18.5
1181,24.1
1182,17.3
1184,24.1
1185,23.8
1187,14.1
1189,17.4
1190,12.3
1191,15.9
1192,6.7
1194,24.5
1195,26.1
1197,17.6
1198,8.5
1199,22.7
1200,5.2
1201,23.7
1203,3.0
1207,10.8
1210,15.6
1212,21.8
1213,3.0
1215,21.9
1216,14.6
1218,21.7
1219,22.2
1221,19.7
1222,7.9
1223,-2.1
1224,19.8
1229,3.5
1230,21.6
1231,6.0
1233,9.0
1234,-12.4
1235,17.6
1239,3.3
1241,27.0
1247,39.1
1248,16.3
1250,24.3
1251,27.6
1252,10.7
1253,19.2
1255,10.9
1257,6.0
1259,18.5
1260,21.1
1261,4.1
1266,4.5
1268,16.3
1269,23.7
1270,21.0
1273,22.9
1275,24.4
1277,20.9
1279,4.1
1280,11.2
1282,5.6
1288,25.0
1289,10.5
1290,20.9
1292,5.6
1293,8.2
1297,4.7
1301,11.6
1302,0.5
1308,20.4
1311,22.7
1312,0.5
1316,15.4
1318,12.5
1319,13.1
1320,25.9
1323,5.0
1324,0.5
1326,20.3
1327,15.7
1330,18.0
1334,-4.7
1341,17.2
1342,8.2
1345,39.1
1356,-9.8
1358,9.0
1359,18.5
1360,20.6
1362,18.7
1365,16.6
1367,27.4
1368,31.3
1369,27.4
1370,24.0
1372,13.8
1373,12.2
1375,26.9
1376,14.3
1379,18.5
1382,9.2
1384,19.3
1386,24.5
1387,23.5
1390,9.0
1391,13.3
1392,15.2
1393,7.6
1395,11.7
1401,24.9
1402,-2.1
1404,5.5
1407,10.3
1413,12.8
1414,-9.8
1415,20.0
1419,4.1
1420,6.4
1423,15.7
1424,9.0
1425,39.1
1426,15.2
1427,14.4
1431,24.4
1432,16.6
1436,0.5
1437,13.5
1439,22.1
1440,12.5
1442,3.1
1443,25.9
1444,10.4
1445,16.0
1446,36.5
1448,12.4
1451,9.4
1452,4.7
1453,20.6
1454,13.3
1459,18.5
1460,3.9
1462,5.6
1463,28.0
1465,14.5
1468,26.7
1470,18.5
1474,18.9
1478,8.1
1479,16.4
1481,3.0
1482,23.5
1485,26.0
1486,13.2
1487,9.6
1489,27.4
1491,5.6
1494,27.1
1495,3.9
1496,19.7
1502,-2.1
1507,16.7
1509,6.4
1510,27.5
1511,3.2
1513,-9.8
1514,6.6
1516,13.5
1517,13.6
1519,26.3
1525,41.6
1526,15.7
1529,5.6
1531,18.8
1532,19.9
1533,14.3
1535,16.2
1537,5.6
1538,17.5
1541,17.8
1544,22.9
1545,26.2
1547,36.5
1548,17.4
1549,17.4
1550,4.1
1551,15.4
1555,9.5
1556,21.9
1558,18.5
1562,25.9
1563,24.5
1564,18.7
1565,20.3
1569,13.3
1571,3.1
1577,7.3
1578,15.6
1580,22.1
1581,3.0
1584,10.0
1585,18.3
1587,14.4
1588,9.7
1591,11.0
1592,0.5
1593,27.0
1596,5.8
1597,20.7
1598,23.8
1602,-4.7
1605,22.2
1606,16.4
1610,25.3
1611,6.4
1613,-9.8
1618,15.3
1619,14.3
1621,25.2
1625,41.6
1629,3.5
1630,27.2
1631,23.2
1634,27.0
1636,8.2
1637,27.6
1638,22.7
1639,21.9
1641,24.0
1642,23.5
1644,22.4
1646,31.3
1652,22.1
1653,3.9
1654,10.6
1655,8.2
1657,15.6
1658,18.5
1660,16.1
1661,4.6
1662,15.3
1663,16.7
1667,14.1
1669,21.7
1670,13.3
1671,27.0
1672,8.6
1674,8.9
1676,13.1
1680,22.0
1681,0.5
1683,14.2
1684,23.7
1686,5.4
1688,20.9
1689,18.1
1691,0.5
1692,18.6
1693,5.8
1697,26.8
1698,7.8
1700,23.6
1701,3.0
1704,24.8
1705,27.2
1706,7.7
1707,6.2
1710,6.3
1711,9.6
1712,-4.7
1713,7.2
1715,4.0
1721,9.5
1722,19.4
1723,7.3
1724,36.5
1725,24.7
1726,25.4
1728,18.3
1731,21.1
1732,11.9
1733,14.5
1734,3.2
1735,-7.2
1737,21.9
1739,4.7
1741,4.4
1744,20.3
1745,20.2
1746,33.9
1748,24.0
1750,9.8
1751,17.1
1754,7.0
1756,12.3
1758,18.5
1761,22.5
1762,24.0
1763,19.1
1765,4.5
1767,15.1
1769,13.3
1775,18.4
1776,5.5
1780,0.5
1781,18.9
1786,6.6
1792,-2.1
1793,21.8
1795,16.6
1796,14.6
1797,17.7
1799,21.4
1800,14.9
1801,21.6
1802,27.6
1803,33.9
1804,24.6
1810,17.4
1811,8.1
1812,7.4
1813,5.0
1814,-20.1
1816,15.4
1818,10.5
1819,6.6
1820,10.2
1822,9.6
1826,31.3
1830,25.3
1837,19.1
1838,15.9
1839,8.3
1840,13.5
1843,5.7
1844,23.7
1846,4.3
1847,7.8
1848,12.6
1849,8.2
1851,13.8
1853,20.2
1856,8.4
1860,3.0
1863,14.9
1864,6.7
1865,13.0
1866,20.4
1867,7.2
1870,3.0
1871,26.4
1874,6.8
1877,3.9
1878,17.9
1880,22.5
1881,-2.1
1884,8.9
1886,25.3
1887,13.4
1888,6.4
1889,17.3
1892,-9.8
1894,7.9
1895,27.0
1896,17.6
1900,3.2
1903,41.6
1904,14.6
1906,18.1
1908,3.8
1909,5.4
1910,9.1
1912,11.3
1914,5.6
1915,22.9
1916,27.1
1917,3.6
1920,14.5
1926,36.5
1929,18.4
1931,5.2
1936,21.8
1937,18.5
1938,3.9
1941,14.3
1944,7.0
1948,15.9
1949,5.7
1950,16.5
1954,12.5
1955,4.0
1959,3.0
1960,15.7
1961,25.1
1965,19.4
1969,15.4
1970,3.0
1974,7.6
1980,-4.7
1982,3.6
1983,23.6
1984,10.9
1985,26.1
1987,22.3
1992,-9.8
1993,21.6
1994,22.8
2001,28.0
2003,41.6
2004,5.8
2005,7.2
2009,23.2
2010,27.1
2012,14.8
2013,3.2
2015,10.8
2016,9.4
2021,9.1
2024,4.3
2025,27.5
2026,26.2
2028,23.6
2029,22.0
2030,10.3
2031,22.7
2032,25.6
2034,7.6
2035,6.6
2037,13.3
2038,19.2
2040,3.4
2044,11.6
2047,8.4
2048,17.7
2049,5.6
2051,21.9
2052,6.5
2057,21.3
2060,0.5
2061,26.4
2066,21.3
2068,17.6
2069,10.6
2070,0.5
2071,23.6
2074,22.9
2075,14.9
2076,7.5
2080,3.0
2082,18.4
2084,8.2
2086,7.6
2088,19.0
2089,11.8
2091,-7.2
2092,5.4
2093,26.1
2094,14.8
2096,5.0
2097,14.6
2098,23.5
2099,21.0
2102,36.5
2103,3.6
2104,27.3
2106,6.3
2108,26.7
2109,23.7
2110,12.0
2113,-7.2
2115,16.5
2116,5.8
2117,3.9
2119,5.6
2120,17.4
2122,5.8
2123,26.9
2124,16.4
2125,33.9
2126,26.1
2127,5.3
2128,23.1
2131,16.5
2134,13.1
2137,18.5
2139,21.9
2140,10.1
2141,18.2
2142,16.4
2143,13.3
2145,15.0
2146,13.7
2147,25.0
2148,13.3
2151,27.5
2153,19.9
2154,6.2
2155,14.6
2157,28.0
2159,0.5
2161,25.7
2163,15.5
2164,9.7
2165,14.4
2169,-2.1
2171,3.6
2174,21.7
2175,14.0
2176,19.4
2179,27.4
2181,33.9
2184,27.4
2185,5.7
2191,3.8
2193,-22.7
2194,10.3
2197,24.2
2198,6.3
2202,13.9
2204,4.1
2205,28.8
2209,13.1
2212,21.4
2215,22.1
2216,15.9
2217,26.3
2218,22.2
2219,26.6
2221,8.0
2223,18.2
2225,21.3
2228,8.2
2229,6.2
2236,7.9
2238,3.0
2240,11.2
2242,8.8
2243,16.5
2246,15.7
2247,9.8
2248,3.0
2250,26.6
2252,4.0
2253,6.9
2255,8.6
2257,27.1
2259,-2.1
2260,13.3
2261,9.9
2262,7.7
2263,20.9
2264,3.2
2266,4.6
2269,7.2
2271,-12.4
2272,21.6
2273,15.3
2277,26.5
2279,6.7
2281,3.4
2282,25.6
2283,41.6
2285,3.0
2287,8.2
2290,8.4
2291,4.5
2292,3.5
2293,16.0
2294,15.9
2295,9.2
2299,10.3
2302,20.9
2303,13.1
2305,9.0
2306,23.6
2307,5.8
2309,3.1
2315,15.9
2317,8.2
2320,17.3
2321,22.5
2324,28.0
2325,6.0
2326,6.0
2327,23.0
2328,8.2
2329,3.6
2330,26.9
2332,24.3
2336,12.6
2337,21.8
2338,3.0
2339,18.7
2341,23.5
2342,6.5
2344,15.4
2345,26.3
2348,21.6
2349,3.0
2350,17.5
2353,16.3
2356,22.3
2359,-4.7
2363,21.2
2365,21.5
2367,18.4
2368,12.7
2370,-12.4
2371,16.5
2372,21.3
2373,10.5
2374,27.7
2379,26.8
2381,26.6
2382,39.1
2383,24.7
2384,16.7
2385,15.0
2387,9.5
2394,9.1
2395,21.0
2399,4.3
2400,26.0
2401,23.4
2406,21.0
2408,27.3
2411,15.9
2417,5.6
2418,20.1
2419,9.2
2420,6.0
2423,5.4
2425,23.9
2426,26.8
2427,5.6
2431,5.1
2432,5.4
2435,25.1
2437,11.0
2438,0.5
2439,19.6
2441,16.9
2448,0.5
2449,12.2
2450,9.5
2451,15.5
2453,22.0
2454,27.1
2455,10.7
2456,27.3
2457,7.7
2459,3.0
2460,9.5
2465,24.2
2467,3.3
2468,12.1
2469,-4.7
2470,11.1
2472,9.0
2474,13.3
2481,39.1
2482,3.7
2490,11.0
2492,-9.8
2494,26.6
2498,18.2
2502,9.3
2503,31.3
2505,17.6
2511,20.6
2512,24.6
2513,13.8
2514,18.5
2516,6.7
2518,4.3
2520,4.5
2523,6.4
2524,25.0
2525,21.0
2527,13.3
2528,23.3
2529,20.7
2537,16.5
2538,-2.1
2539,5.3
2547,15.7
2548,26.0
2549,-9.8
2552,19.3
2559,15.8
2560,17.9
2561,41.6
2562,22.2
2564,27.2
2568,6.7
2572,3.0
2575,25.3
2578,6.5
2581,16.3
2582,36.5
2583,15.5
2584,4.8
2586,9.6
2587,11.1
2588,6.4
2591,8.7
2592,25.8
2594,21.0
2596,18.9
2598,7.8
2600,10.8
2602,26.8
2606,15.9
2609,8.6
2610,27.9
2612,3.4
2614,10.4
2615,7.0
2617,3.0
2621,5.4
2626,22.3
2627,3.0
2631,26.8
2634,16.8
2635,11.3
2637,-2.1
2638,16.7
2640,20.2
2641,26.5
2642,18.7
2644,22.7
2645,27.4
2646,11.6
2649,-9.8
2650,3.4
2653,19.6
2654,25.3
2656,5.9
2657,3.8
2659,14.6
2661,41.6
2662,7.3
2663,4.4
2665,13.7
2667,3.6
2670,5.1
2672,5.6
2673,17.0
2679,16.1
2680,14.5
2682,36.5
2683,3.7
2684,21.1
2685,21.6
2688,7.4
2689,27.6
2693,6.2
2694,18.5
2696,21.4
2697,26.1
2701,13.7
2703,11.8
2705,15.9
2707,6.1
2708,19.4
2709,9.6
2710,16.3
2711,12.4
2712,15.4
2715,13.7
2716,0.5
2721,21.8
2725,8.6
2726,23.4
2727,3.0
2729,25.3
2732,25.8
2734,21.8
2735,10.8
2736,21.1
2737,27.3
2738,-4.7
2739,10.6
2742,7.4
2744,6.6
2745,14.0
2746,27.7
2747,24.3
2749,-9.8
2751,10.5
2754,23.6
2756,3.6
2760,41.6
2764,18.6
2765,11.3
2767,3.2
2768,15.5
2771,10.8
2773,21.6
2774,18.6
2775,8.1
2776,21.3
2777,15.3
2779,6.7
2780,8.9
2783,28.8
2785,17.0
2786,13.5
2790,15.3
2795,15.9
2798,13.2
2802,7.2
2804,26.5
2805,21.9
2806,5.6
2807,21.7
2808,6.2
2810,14.5
2812,26.8
2813,12.9
2816,27.7
2817,0.5
2820,15.7
2821,24.2
2822,20.6
2825,12.7
2827,0.5
2829,11.8
2830,20.5
2832,13.0
2834,6.8
2836,6.3
2837,3.0
2839,27.6
2840,26.9
2841,18.5
2844,14.0
2847,-7.2
2850,27.9
2851,24.3
2853,14.0
2855,24.4
2856,9.7
2857,18.6
2858,14.8
2860,39.1
2861,23.7
2863,19.6
2865,17.5
2868,19.0
2869,12.0
2871,-7.2
2876,3.9
2879,27.4
2880,5.7
2882,31.3
2885,15.8
2886,15.5
2887,15.1
2888,10.5
2889,6.6
2890,8.9
2891,24.6
2893,15.9
2894,23.3
2895,10.7
2899,10.7
2902,13.5
2903,21.5
2905,13.3
2907,12.5
2912,6.8
2914,5.8
2916,0.5
2917,5.2
2918,22.8
2922,13.8
2925,9.3
2927,-2.1
2928,21.5
2929,11.9
2930,11.9
2931,17.4
2935,7.3
2937,27.2
2938,33.9
2939,19.5
2940,9.9
2942,10.1
2944,23.5
2945,22.2
2948,5.5
2950,-20.1
2951,20.8
2954,15.3
2955,7.9
2960,16.8
2961,16.3
2962,28.8
2966,14.6
2968,3.1
2971,19.7
2972,8.8
2973,15.9
2974,8.6
2975,19.9
2976,22.7
2977,15.5
2979,24.6
2980,23.2
2982,21.1
2983,16.2
2984,8.2
2996,5.6
3006,3.0
3012,9.9
3013,23.0
3015,16.4
3016,-4.7
3017,27.8
3018,13.1
3021,24.7
3023,3.5
3025,24.2
3026,23.4
3027,-9.8
3028,27.8
3030,7.5
3031,7.0
3032,25.0
3033,10.8
3034,19.4
3035,10.0
3037,23.1
3038,7.7
3039,41.6
3040,24.6
3041,6.0
3042,13.0
3044,10.8
3046,21.6
3049,16.2
3050,5.6
3053,3.1
3055,26.6
3056,15.4
3058,5.5
3060,21.2
3061,33.9
3062,24.8
3063,12.6
3064,27.7
3065,8.1
3067,4.6
3070,20.5
3071,5.6
3073,18.5
3075,14.2
3078,23.7
3079,18.6
3081,25.8
3084,15.9
3087,4.2
3090,5.2
3092,9.9
3095,3.0
3097,26.5
3100,8.2
3103,26.0
3104,14.9
3105,0.5
3108,5.9
3112,5.7
3114,20.2
3116,-4.7
3120,21.7
3122,17.7
3123,14.7
3124,19.3
3128,-12.4
3131,13.4
3134,22.5
3136,5.6
3138,18.8
3139,12.7
3140,36.5
3144,26.2
3145,22.0
3146,26.5
3147,20.1
3148,18.4
3151,21.0
3153,21.8
3154,4.3
3158,15.7
3160,5.5
3161,19.2
3163,21.0
3164,24.1
3166,18.9
3167,23.5
3168,11.2
3169,12.1
3170,3.2
3171,6.0
3172,8.2
3174,5.6
3175,13.9
3176,8.6
3177,16.3
3179,20.7
3180,3.6
3181,26.1
3184,5.6
3187,17.0
3188,19.9
3189,23.9
3191,16.1
3192,3.1
3194,6.4
3195,0.5
3197,14.7
3198,22.0
3200,20.9
3202,14.7
3203,26.6
3206,0.5
3208,5.6
3210,3.7
3213,20.3
3215,5.8
3216,3.0
3220,18.4
3221,27.4
3222,6.9
3223,25.3
3224,19.9
3226,-4.7
3230,25.0
3231,17.7
3232,27.7
3235,9.3
3237,39.1
3238,15.3
3239,6.0
3241,7.9
3242,11.5
3245,8.7
3246,14.2
3248,13.5
3249,-7.2
3250,24.6
3251,25.5
3253,3.2
3257,23.0
3259,16.7
3261,31.3
3265,19.8
3266,20.9
3270,12.2
3272,18.5
3273,11.8
3275,24.7
3276,15.5
3277,3.4
3279,19.3
3280,19.7
3282,10.3
3283,13.3
3285,23.0
3287,6.4
3288,24.9
3289,27.1
3290,7.1
3291,23.6
3292,12.8
3293,4.0
3294,27.8
3295,-2.1
3300,18.1
3302,22.1
3303,16.8
3305,24.2
3306,-9.8
3307,9.5
3310,19.7
3311,3.5
3312,23.0
3314,20.1
3315,11.9
3316,13.9
3317,41.6
3318,20.3
3319,9.1
3322,24.2
3324,25.9
3325,12.1
3327,21.7
3328,24.9
3329,6.6
3330,0.5
3335,11.0
3338,21.4
3339,24.0
3340,36.5
3342,25.4
3344,23.6
3345,12.7
3351,18.5
3356,3.1
3361,26.2
3362,15.9
3366,8.4
3370,12.1
3374,3.0
3378,27.5
3384,3.0
3386,26.9
3387,19.2
3389,22.2
3393,25.3
3394,6.9
3395,-4.7
3399,24.2
3400,20.6
3401,20.4
3405,18.5
3406,-9.8
3407,24.6
3409,17.4
3410,10.2
3412,24.4
3415,15.6
3416,8.5
3418,41.6
3419,3.3
3423,25.8
3425,21.5
3428,18.0
3429,5.6
3433,23.2
3437,23.4
3439,33.9
3441,10.9
3442,8.7
3447,6.7
3450,18.5
3452,12.2
3453,4.8
3454,14.9
3455,12.1
3456,23.2
3457,16.8
3458,12.7
3459,10.3
3461,20.8
3463,15.9
3468,9.1
3470,19.7
3471,26.4
3472,24.6
3473,8.8
3474,0.5
3475,16.7
3476,5.3
3477,11.1
3480,23.5
3484,3.0
3485,25.0
3487,9.9
3491,15.5
3493,9.5
3494,-4.7
3495,27.8
3498,15.3
3499,23.5
3503,17.6
3504,13.6
3506,-12.4
3511,27.0
3513,11.0
3515,9.2
3516,11.4
3518,39.1
3521,21.6
3522,25.9
3523,5.8
3525,16.7
3530,18.5
3534,4.9
3535,14.2
3539,15.3
3540,23.2
3542,21.0
3543,6.3
3546,17.8
3548,22.1
3549,15.4
3551,5.5
3553,5.6
3554,12.1
3556,6.9
3557,24.4
3559,19.0
3561,22.1
3563,5.6
3567,23.3
3568,14.5
3570,8.7
3572,12.6
3573,0.5
3581,6.8
3584,0.5
3587,22.7
3588,13.9
3591,21.5
3592,27.8
3593,22.3
3595,5.6
3601,13.6
3602,14.6
3605,-7.2
3608,6.5
3609,12.0
3610,14.0
3611,3.7
3614,8.1
3615,23.7
3616,41.6
3618,14.6
3620,12.0
3623,23.1
3624,21.9
3626,15.0
3628,-7.2
3629,27.9
3634,21.8
3638,15.0
3639,31.3
3640,21.1
3643,8.4
3648,15.2
3650,18.5
3651,10.7
3655,8.7
3657,3.4
3658,7.6
3659,14.1
3660,23.5
3661,24.0
3662,13.3
3664,15.6
3669,11.1
3670,14.5
3672,7.5
3673,4.2
3674,-2.1
3675,17.1
3676,11.3
3679,22.3
3681,12.9
3683,16.2
3684,27.5
3685,-9.8
3687,25.3
3689,7.6
3691,15.9
3695,10.5
3696,41.6
3701,4.1
3704,13.4
3707,3.0
3711,9.3
3712,3.3
3715,19.3
3717,12.4
3718,36.5
3721,8.2
3722,15.0
3724,4.7
3727,23.9
3728,8.2
3730,18.5
3731,11.5
3732,21.2
3734,27.2
3737,13.0
3741,18.5
3744,13.4
3746,6.5
3748,18.1
3751,8.4
3752,3.0
3753,16.2
3761,21.1
3762,23.9
3763,3.0
3765,18.2
3766,13.2
3768,19.8
3769,3.8
3770,9.6
3771,26.0
3772,16.1
3773,-2.1
3775,12.8
3776,20.0
3777,7.4
3780,20.3
3781,22.5
3785,-9.8
3788,22.4
3789,9.5
3791,11.7
3792,3.6
3793,16.1
3794,23.9
3795,22.3
3796,41.6
3797,14.9
3798,17.4
3800,21.6
3802,26.9
3805,11.2
3808,5.6
3810,24.3
3816,13.7
3817,9.4
3818,33.9
3822,3.2
3823,7.8
3824,19.4
3825,11.0
3826,14.3
3829,18.5
3830,21.4
3832,15.5
3835,25.0
3836,15.5
3838,11.5
3839,9.4
3840,13.9
3841,15.9
3843,4.9
3844,20.6
3845,3.7
3848,23.8
3849,16.2
3851,6.7
3852,7.5
3853,0.5
3857,8.3
3858,13.1
3862,23.9
3863,3.0
3868,14.4
3869,8.2
3870,4.5
3872,7.4
3873,-4.7
3874,26.6
3878,6.7
3882,5.6
3884,22.0
3885,-12.4
3888,23.9
3891,23.8
3892,19.3
3893,15.3
3897,36.5
3898,18.2
3899,27.2
3904,5.7
3905,7.1
3907,22.5
3908,18.5
3911,6.9
3912,25.1
3915,12.3
3916,10.2
3918,23.9
3919,13.1
3920,18.5
3921,16.8
3925,3.8
3926,7.4
3929,5.6
3930,13.6
3932,5.6
3933,17.5
3934,8.2
3937,24.4
3939,7.5
3941,3.7
3942,5.6
3943,7.5
3944,13.3
3945,27.0
3947,17.2
3949,16.7
3951,5.4
3952,0.5
3954,27.5
3955,9.7
3956,20.0
3961,9.7
3962,3.0
3963,23.7
3965,4.5
3967,16.7
3968,24.7
3971,14.3
3972,25.1
3973,5.6
3975,22.0
3980,26.0
3982,23.2
3983,-4.7
3987,5.0
3989,26.1
3992,14.1
3995,39.1
4000,22.5
4001,25.2
4003,20.1
4005,26.5
4006,-4.7
4008,10.3
4010,8.0
4016,7.6
4018,33.9
4024,23.9
4025,7.6
4029,18.5
4031,25.9
4035,12.4
4036,8.6
4039,5.8
4040,10.8
4041,23.2
4043,7.0
4044,10.0
4045,14.1
4047,27.5
4048,25.9
4049,3.1
4051,8.6
4052,0.5
4053,17.1
4054,21.5
4058,21.9
4061,11.1
4062,4.5
4063,-2.1
4065,25.0
4066,18.4
4073,18.3
4074,33.9
4078,27.7
4080,11.1
4081,20.5
4082,8.5
4085,-22.7
4086,18.1
4087,6.2
4093,20.5
4096,27.8
4098,31.3
4100,15.3
4101,16.5
4105,5.2
4109,15.9
4111,25.4
4113,5.9
4114,12.7
4115,11.7
4121,8.2
4124,4.2
4126,27.4
4130,17.1
4131,3.0
4134,13.7
4138,6.1
4139,13.8
4140,13.5
4141,12.9
4142,3.0
4145,11.3
4148,7.3
4150,24.6
4151,16.8
4152,-2.1
4155,10.6
4158,27.4
4159,17.7
4161,9.6
4163,-9.8
4164,21.7
4167,17.7
4168,3.6
4172,21.1
4174,41.6
4175,15.6
4180,16.7
4186,10.5
4187,5.6
4189,3.1
4190,21.7
4194,27.8
4197,33.9
4206,21.8
4207,24.2
4208,18.5
4215,3.5
4217,4.1
4219,15.9
4221,3.3
4224,20.9
4228,5.6
4229,27.0
4230,24.1
4231,3.0
4236,17.9
4238,7.1
4239,22.3
4240,25.6
4241,0.5
4247,22.4
4248,26.6
4252,-4.7
4253,25.1
4257,9.0
4259,3.8
4260,9.5
4261,17.3
4263,-12.4
4265,3.9
4266,8.6
4268,25.5
4276,36.5
4277,11.7
4278,7.8
4282,8.2
4284,3.2
4285,7.2
4286,11.9
4287,18.5
4289,4.0
4290,23.2
4292,25.6
4293,23.1
4294,11.6
4298,18.5
4303,27.3
4306,5.8
4307,25.1
4308,8.7
4309,11.4
4310,5.6
4312,11.2
4313,20.9
4314,25.4
4317,8.7
4320,13.1
4321,5.6
4322,15.6
4323,16.9
4329,17.0
4330,20.4
4331,-2.1
4332,8.2
4333,7.8
4334,22.4
4335,7.8
4336,7.1
4337,24.2
4338,12.9
4340,7.1
4341,13.7
4342,-7.2
4343,3.2
4346,16.4
4347,11.7
4348,21.7
4350,16.5
4354,39.1
4355,19.1
4356,6.1
4357,23.8
4358,22.7
4360,21.8
4365,-2.1
4367,5.3
4370,25.0
4371,4.4
4372,22.5
4373,21.8
4375,12.8
4376,31.3
4378,25.7
4379,18.3
4382,18.4
4383,26.8
4385,5.9
4387,9.1
4388,15.9
4389,15.4
4394,8.0
4395,15.0
4396,10.7
4397,12.3
4399,7.0
4400,8.2
4401,25.7
4403,12.6
4404,17.9
4406,24.7
4408,19.0
4409,17.2
4410,3.0
4411,25.5
4414,11.5
4416,27.6
4417,5.4
4420,5.6
4423,6.3
4429,12.9
4430,-2.1
4435,4.9
4439,8.7
4440,15.0
4442,-9.8
4444,8.8
4445,13.0
4447,26.6
4448,24.4
4454,41.6
4455,9.9
4456,11.0
4458,19.7
4461,15.7
4464,25.9
4465,5.6
4472,9.3
4473,5.6
4475,36.5
4477,25.6
4482,20.5
4484,25.3
4487,18.5
4491,13.6
4493,14.2
4495,22.2
4498,15.9
4500,3.7
4501,17.3
4502,7.0
4505,21.5
4506,16.3
4509,3.0
4510,9.7
4511,24.9
4512,9.8
4520,0.5
4523,7.8
4525,20.6
4529,4.6
4531,-2.1
4537,20.3
4538,24.5
4539,11.9
4540,10.9
4541,9.8
4542,-12.4
4543,21.0
4544,6.5
4548,17.5
4549,5.6
4550,8.9
4551,24.0
4553,15.9
4554,39.1
4555,14.0
4556,25.9
4557,14.5
4561,6.5
4562,14.7
4566,18.5
4567,27.3
4569,12.4
4570,21.5
4571,24.5
4573,6.8
4574,5.3
4576,16.6
4577,21.0
4578,20.7
4579,9.4
4580,22.9
4583,11.0
4585,26.3
4587,22.8
4588,17.8
4589,8.2
4590,21.4
4591,27.2
4592,10.6
4594,16.6
4595,15.3
4596,13.8
4598,18.9
4599,8.2
4601,23.7
4602,8.0
4605,8.2
4606,8.9
4608,7.3
4609,17.7
4610,3.0
4611,17.0
4614,11.9
4616,11.9
4617,18.4
4619,4.4
4620,0.5
4621,11.5
4623,20.9
4624,19.6
4627,27.0
4628,9.9
4629,25.1
4630,-2.1
4632,11.3
4637,15.6
4638,22.6
4641,-12.4
4643,21.4
4645,16.3
4652,23.7
4655,39.1
4657,16.5
4660,27.3
4663,11.0
4664,13.9
4666,15.9
4667,22.8
4669,6.4
4670,22.7
4672,3.4
4673,15.7
4674,12.9
4675,6.1
4676,17.6
4677,18.5
4679,7.2
4680,10.6
4681,8.4
4684,22.5
4686,24.9
4688,5.6
4689,21.4
4690,5.0
4692,17.6
4693,7.2
4694,7.0
4695,7.6
4697,11.8
4698,21.9
4699,5.6
4700,16.3
4702,11.8
4706,22.9
4707,26.3
4709,-2.1
4710,13.1
4711,21.9
4718,27.7
4719,14.2
4720,16.8
4721,-7.2
4722,7.7
4723,22.0
4724,25.0
4725,19.2
4727,5.3
4730,26.6
4731,22.8
4732,39.1
4734,9.1
4735,9.8
4736,10.2
4738,17.3
4741,17.9
4742,22.7
4744,-2.1
4747,18.1
4751,19.4
4753,12.9
4754,23.8
4755,31.3
4758,14.1
4759,6.4
4761,13.0
4763,9.6
4764,23.8
4766,15.9
4767,11.6
4769,24.0
4771,27.1
4772,12.0
4774,7.9
4776,4.7
4777,8.2
4778,23.9
4780,19.2
4783,3.5
4784,8.8
4785,4.9
4786,21.4
4787,5.1
4789,3.0
4793,8.5
4794,12.3
4796,8.0
4799,3.0
4800,18.5
4806,6.4
4809,-2.1
4810,10.4
4813,14.6
4818,5.2
4820,-9.8
4822,17.8
4823,12.6
4824,3.1
4825,4.2
4826,27.1
4827,26.3
4828,6.6
4829,15.1
4832,41.6
4835,3.9
4836,13.0
4837,13.0
4839,26.1
4841,21.7
4842,23.8
4843,3.0
4844,4.4
4846,27.4
4847,24.8
4850,12.8
4851,8.5
4852,16.1
4853,26.5
4854,33.9
4855,3.3
4856,17.3
4858,8.7
4859,7.3
4861,9.8
4862,5.3
4864,23.7
4865,19.5
4866,18.5
4867,24.4
4868,19.8
4869,8.1
4871,24.7
4877,15.9
4879,8.0
4880,13.3
4881,3.3
4882,26.4
4883,18.4
4887,10.1
4888,3.0
4890,5.3
4891,13.9
4893,6.4
4896,8.0
4898,3.0
4899,5.5
4901,11.7
4902,25.5
4904,10.2
4906,25.9
4909,-4.7
4910,7.9
4911,7.5
4912,14.7
4914,25.4
4917,16.1
4921,-12.4
4925,14.9
4926,13.5
4927,26.0
4929,3.8
4930,24.5
4933,39.1
4935,8.2
4938,9.3
4939,10.3
4942,18.6
4943,4.1
4944,15.9
4945,9.9
4947,13.7
4951,4.7
4953,11.2
4956,18.5
4957,11.5
4958,15.8
4960,14.0
4962,28.0
4965,23.9
4967,5.6
4968,15.4
4969,18.4
4971,7.7
4974,10.5
4976,7.6
4977,8.2
4978,25.1
4981,10.2
4983,8.5
4987,10.7
4988,0.5
4990,22.3
4993,4.9
4995,15.4
4997,8.5
4999,0.5
5001,11.6
5003,22.5
5004,22.9
5005,15.5
5009,-2.1
5014,12.7
5015,9.4
5016,17.3
5018,27.9
5020,-12.4
5022,7.1
5026,24.9
5027,22.3
5028,12.2
5029,8.6
5032,39.1
5043,24.1
5044,18.5
5045,6.4
5047,17.0
5049,4.0
5053,20.2
5055,7.3
5056,18.5
5057,15.9
5065,21.3
5067,5.6
5068,9.7
5077,19.3
5078,5.6
5084,27.5
5085,3.1
5086,11.5
5087,15.5
5088,0.5
5089,11.4
5090,25.1
5091,15.0
5095,26.6
5096,7.4
5098,-2.1
5099,12.8
5102,10.0
5108,11.0
5109,31.3
5110,17.7
5111,3.4
5113,23.0
5117,17.5
5119,8.5
5120,16.3
5121,9.5
5122,-20.1
5124,13.7
5125,10.6
5129,24.2
5130,18.9
5132,21.4
5133,10.3
5134,31.3
5139,14.4
5142,26.9
5145,15.9
5146,16.1
5147,9.9
5151,14.4
5154,12.9
5156,10.8
5158,12.4
5159,16.6
5161,14.3
5168,-4.7
5176,19.3
5177,24.4
5178,25.0
5179,-9.8
5183,9.4
5189,13.4
5191,41.6
5197,14.7
5199,20.0
5202,5.6
5204,12.7
5205,8.8
5207,16.8
5210,23.2
5213,33.9
5214,27.1
5216,4.7
5217,19.5
5224,18.5
5228,25.1
5229,5.2
5231,12.3
5235,15.9
5237,15.9
5240,18.2
5241,3.8
5243,4.5
5244,14.3
5245,26.1
5246,0.5
5248,7.2
5249,24.1
5251,3.3
5255,15.9
5257,11.4
5258,0.5
5260,20.4
5261,19.2
5262,23.9
5264,12.6
5265,10.3
5267,8.9
5268,-2.1
5271,13.3
5272,25.1
5273,3.8
5275,25.5
5276,8.7
5277,9.2
5279,-12.4
5280,9.7
5284,13.6
5285,15.7
5287,8.3
5289,12.9
5291,19.1
5292,39.1
5293,19.6
5303,15.9
5304,3.6
5305,13.1
5306,20.5
5309,25.2
5310,6.0
5311,26.3
5314,18.5
5315,7.6
5324,7.6
5325,13.3
5326,8.2
5327,24.4
5328,25.8
5329,19.1
5331,22.4
5333,18.4
5335,22.3
5337,5.6
5338,14.3
5340,19.2
5343,13.8
5344,8.5
5345,22.0
5347,0.5
5350,19.9
5351,23.2
5352,4.2
5357,0.5
5358,14.8
5359,8.1
5360,13.4
5363,10.6
5367,5.6
5370,23.3
5371,20.4
5372,20.3
5374,24.7
5375,15.6
5376,15.0
5377,13.0
5378,-4.7
5379,21.5
5380,10.9
5383,27.9
5384,11.1
5390,39.1
5391,3.5
5392,19.8
5395,10.6
5398,6.5
5401,-4.7
5402,23.7
5405,20.4
5406,4.5
5408,19.2
5409,17.0
5412,33.9
5414,22.1
5417,22.1
5418,16.6
5420,13.0
5421,21.1
5422,3.7
5424,15.9
5426,12.8
5427,7.7
5428,4.5
5430,4.7
5435,10.8
5436,22.1
5439,17.4
5441,27.1
5443,25.4
5445,3.4
5446,-2.1
5447,7.8
5448,23.2
5450,17.5
5455,22.2
5457,15.7
5458,-9.8
5464,18.4
5469,19.8
5470,39.1
5471,17.2
5474,16.4
5476,7.0
5481,5.6
5482,6.0
5484,6.8
5485,20.6
5489,27.1
5490,22.2
5491,36.5
5492,22.3
5497,8.8
5499,5.3
5502,21.0
5503,21.4
5506,26.1
5508,16.3
5509,23.6
5510,10.7
5512,9.6
5514,15.9
5516,13.1
5517,10.3
5518,3.8
5521,20.9
5523,17.8
5524,20.2
5525,19.6
5526,3.0
5527,27.3
5528,5.2
5533,22.3
5536,5.6
5537,26.9
5538,10.6
5540,27.7
5541,18.0
5542,3.5
5543,10.1
5547,-2.1
5548,22.4
5549,18.3
5550,13.5
5552,3.7
5553,12.5
5556,7.5
5557,18.4
5558,-12.4
5560,23.5
5561,14.0
5564,3.0
5565,9.5
5566,18.2
5567,7.1
5568,28.0
5570,39.1
5572,8.8
5574,25.8
5576,21.6
5580,9.9
5581,15.9
5583,22.7
5584,23.3
5587,20.4
5589,22.6
5593,20.3
5594,21.0
5596,23.6
5598,4.9
5599,21.1
5600,5.8
5603,14.8
5605,8.2
5610,24.5
5614,3.1
5615,8.2
5616,18.9
5618,26.8
5620,9.8
5622,8.5
5623,5.8
5625,0.5
5626,25.1
5629,16.2
5632,24.6
5633,22.0
5634,26.0
5636,0.5
5639,5.6
5640,19.3
5641,9.3
5642,22.3
5644,26.0
5645,19.5
5646,-2.1
5648,25.5
5649,19.4
5650,5.3
5651,3.0
5658,-12.4
5660,26.5
5663,22.4
5664,5.9
5665,4.4
5666,18.0
5668,6.9
5670,39.1
5671,18.8
5673,4.1
5676,25.0
5677,8.1
5680,15.8
5681,16.5
5682,18.5
5685,15.9
5688,25.5
5689,27.0
5690,4.6
5691,7.0
5693,18.5
5694,6.8
5695,7.1
5696,26.6
5700,16.8
5701,19.3
5702,22.3
5703,23.8
5704,5.6
5705,24.1
5707,11.2
5708,26.7
5710,19.5
5713,3.5
5715,5.6
5716,6.7
5717,15.7
5719,17.5
5720,11.5
5721,17.1
5722,19.0
5724,14.7
5725,9.9
5726,-2.1
5733,4.9
5734,16.5
5735,13.6
5737,-7.2
5738,17.8
5739,5.8
5740,18.0
5745,25.4
5746,24.5
5748,41.6
5750,7.3
5753,14.8
5754,12.8
5755,3.4
5756,3.8
5758,6.3
5760,-2.1
5761,3.4
5763,18.6
5764,14.4
5771,31.3
5774,18.9
5775,23.1
5776,27.9
5778,13.5
5780,19.8
5781,25.1
5782,10.0
5783,15.9
5785,8.5
5786,23.1
5789,12.5
5790,19.3
5793,19.0
5794,10.8
5795,11.4
5796,16.0
5800,23.5
5802,15.1
5804,3.1
5806,-2.1
5809,7.5
5810,21.4
5814,10.4
5816,19.5
5817,-9.8
5819,19.4
5820,10.5
5822,19.4
5824,12.3
5827,13.2
5828,39.1
5829,3.5
5830,5.3
5832,26.2
5834,26.9
5836,14.5
5839,8.2
5840,9.2
5844,7.6
5846,25.7
5848,17.2
5851,33.9
5853,13.1
5854,23.4
5857,20.6
5858,9.2
5860,12.4
5862,18.5
5863,22.0
5865,3.0
5866,26.0
5868,10.3
5869,12.4
5871,6.3
5873,13.3
5876,22.1
5879,20.2
5880,4.1
5884,0.5
5886,11.9
5887,20.5
5889,13.6
5890,15.5
5891,5.0
5893,16.3
5895,3.0
5899,14.0
5900,12.2
5903,26.5
5904,20.0
5905,-4.7
5906,27.3
5907,24.8
5908,23.7
5912,9.8
5914,24.9
5916,15.8
5917,-9.8
5918,6.7
5920,11.8
5921,20.9
5922,14.3
5924,15.5
5928,41.6
5929,15.9
5933,9.9
5935,20.8
5936,13.3
5938,28.0
5939,27.0
5940,10.8
5944,8.8
5946,4.0
5949,13.1
5951,26.2
5952,14.6
5956,22.4
5958,27.3
5960,13.2
5962,10.8
5966,17.6
5967,6.2
5968,17.5
5969,17.2
5970,15.1
5971,25.8
5974,5.6
5979,25.2
5980,25.6
5984,6.4
5985,0.5
5991,4.3
5992,9.4
5995,0.5
5999,18.1
6000,12.7
6001,7.1
6004,13.3
6005,3.0
6010,18.5
6011,3.3
6012,13.4
6013,4.8
6014,14.3
6015,26.3
6016,-4.7
6018,17.6
6021,7.4
6025,25.3
6027,39.1
6029,12.4
6030,27.6
6034,25.7
6036,26.7
6037,19.4
6038,-7.2
6040,6.9
6043,25.9
6046,18.1
6047,26.8
6050,33.9
6051,16.7
6053,8.4
6056,21.8
6057,21.4
6059,24.6
6060,13.0
6061,15.9
6062,15.9
6063,20.8
6064,14.3
6066,7.7
6067,25.9
6068,13.8
6069,10.5
6070,9.2
6073,10.8
6075,16.1
6083,4.2
6084,-2.1
6086,26.7
6088,23.2
6089,25.4
6091,23.3
6094,5.4
6095,-9.8
6097,8.0
6098,16.2
6099,7.7
6101,22.1
6107,41.6
6108,5.1
6109,27.8
6110,13.1
6112,3.7
6113,25.4
6115,10.2
6117,4.2
6118,27.5
6119,3.0
6120,20.5
6122,26.2
6123,6.7
6125,18.4
6126,21.7
6127,4.7
6129,33.9
6131,22.8
6132,21.5
6133,19.5
6134,24.3
6135,24.8
6136,21.3
6137,17.1
6138,8.4
6140,18.5
6141,6.0
6143,8.1
6146,23.3
6148,15.4
6150,6.8
6152,15.9
6154,18.9
6155,16.6
6159,6.3
6160,17.8
6163,0.5
6164,16.5
6165,19.1
6170,23.8
6173,3.0
6174,12.6
6176,7.0
6180,22.6
6181,26.5
6184,-4.7
6185,6.4
6186,25.7
6188,11.2
6190,27.2
6191,19.2
6195,4.4
6196,-9.8
6197,7.6
6199,11.4
6200,8.8
6207,41.6
6210,17.3
6211,15.1
6215,13.7
6216,18.2
6217,23.0
6218,8.2
6222,18.6
6223,9.5
6225,25.6
6228,36.5
6233,13.0
6236,25.9
6237,17.2
6239,27.4
6240,18.5
6242,22.4
6244,26.0
6246,27.5
6247,3.8
6248,27.7
6252,15.9
6254,12.3
6257,16.3
6259,25.0
6262,5.1
6263,0.5
6266,19.5
6267,9.2
6269,26.4
6270,14.2
6271,13.2
6274,0.5
6277,5.5
6280,16.2
6283,17.3
6284,-2.1
6287,27.5
6288,6.8
6291,22.1
6292,25.9
6293,19.0
6295,-12.4
6298,22.3
6299,24.2
6300,3.2
6303,9.2
6307,36.5
6309,26.5
6318,15.3
6320,18.5
6324,6.0
6326,7.1
6327,8.6
6329,4.8
6330,7.9
6331,18.5
6332,19.5
6333,10.9
6334,13.1
6335,3.3
6338,15.4
6340,15.4
6342,5.6
6352,5.6
6354,19.1
6355,4.8
6356,27.8
6358,11.7
6359,8.6
6360,5.2
6361,17.4
6362,19.6
6363,0.5
6364,27.1
6365,6.7
6368,11.3
6370,18.6
6373,0.5
6381,23.9
6383,17.9
6384,5.6
6385,4.8
6386,8.0
6391,15.1
6392,8.2
6394,-7.2
6395,4.0
6401,10.5
6403,7.6
6404,10.3
6405,27.9
6406,36.5
6412,9.9
6413,14.2
6416,16.7
6417,-7.2
6423,3.0
6424,9.8
6425,13.8
6427,14.1
6428,31.3
6430,27.0
6432,13.4
6433,6.2
6435,8.6
6438,27.7
6439,18.5
6440,26.1
6442,25.1
6443,20.3
6445,14.8
6446,11.0
6447,22.4
6448,18.2
6449,22.7
6452,10.8
6453,18.7
6457,27.4
6458,20.2
6459,24.3
6460,27.4
6462,5.2
6463,-2.1
6465,20.4
6466,27.0
6468,7.2
6469,16.5
6470,11.7
6471,9.7
6472,12.6
6474,-9.8
6477,27.3
6478,3.9
6486,41.6
6487,23.3
6493,17.0
6495,11.9
6497,0.5
6501,3.0
6502,11.7
6503,21.5
6504,21.2
6506,23.2
6507,36.5
6508,11.0
6510,23.9
6511,9.5
6512,21.0
6513,18.5
6514,19.7
6515,9.2
6516,19.7
6518,26.0
6519,18.5
6520,4.2
6525,15.3
6526,14.8
6527,4.3
6528,3.3
6529,9.1
6530,23.7
6531,15.9
6536,3.3
6537,10.8
6538,25.3
6539,5.9
6542,0.5
6545,9.9
6550,3.5
6551,22.0
6552,3.0
6554,18.1
6555,22.7
6557,16.6
6558,7.5
6559,23.1
6561,3.6
6562,-2.1
6563,8.2
6565,12.6
6566,22.2
6567,22.2
6568,21.5
6571,4.0
6574,-9.8
6576,15.8
6577,25.9
6579,16.6
6582,13.0
6583,26.7
6584,18.7
6585,20.3
6586,41.6
6587,3.5
6593,14.1
6595,16.5
6597,5.6
6598,6.8
6599,11.0
6600,18.2
6601,11.4
6603,27.3
6605,12.6
6606,20.3
6607,33.9
6610,20.7
6612,8.2
6617,8.1
6619,15.9
6620,8.9
6621,21.0
6624,6.3
6626,4.4
6627,7.7
6628,27.6
6630,13.3
6632,10.5
6633,24.3
6634,15.6
6635,15.7
6637,4.3
6638,22.2
6639,13.8
6640,4.1
6641,0.5
6644,21.0
6645,18.1
6646,15.1
6650,27.2
6651,17.9
6652,0.5
6658,4.0
6659,20.0
6660,5.9
6661,20.5
6662,5.3
6663,-2.1
6664,24.0
6669,23.6
6671,18.7
6672,27.5
6673,24.6
6674,-12.4
6675,5.0
6676,8.0
6677,24.4
6681,6.6
6684,12.7
6686,36.5
6691,5.5
6695,11.4
6697,18.5
6698,9.9
6701,11.5
6703,4.2
6707,7.1
6708,13.0
6709,18.5
6710,7.7
6711,6.0
6714,17.8
6715,13.1
6716,10.4
6717,14.4
6718,20.1
6720,27.7
6721,5.6
6723,6.7
6724,10.8
6727,18.0
6728,14.8
6729,3.2
6730,14.9
6731,5.6
6732,9.8
6733,20.8
6734,10.4
6737,21.2
6738,27.0
6739,4.4
6741,16.3
6742,0.5
6744,25.3
6746,22.3
6748,26.0
6749,25.4
6750,5.0
6752,0.5
6753,21.8
6755,10.2
6759,21.6
6762,8.2
6764,23.6
6765,17.3
6772,-7.2
6773,21.2
6775,17.4
6779,13.5
6782,22.8
6785,39.1
6786,23.1
6788,27.9
6793,6.3
6796,-4.7
6797,13.2
6799,9.2
6803,20.6
6805,17.4
6806,26.1
6807,31.3
6808,12.1
6809,27.4
6814,6.4
6818,18.5
6821,12.6
6822,21.5
6823,10.5
6825,6.2
6826,15.2
6827,16.9
6830,13.3
6837,14.2
6838,8.4
6839,12.7
6841,-2.1
6843,13.0
6846,11.3
6849,23.3
6851,12.8
6852,4.0
6853,-9.8
6854,12.9
6857,13.8
6861,3.2
6863,4.1
6864,41.6
6866,21.3
6869,25.2
6870,5.2
6873,18.8
6874,9.6
6875,3.2
6876,3.0
6878,16.6
6880,6.0
6883,24.5
6885,17.7
6886,33.9
6893,17.8
6895,27.7
6896,4.5
6897,18.5
6898,21.5
6899,19.0
6900,6.6
6903,6.4
6905,18.2
6906,11.5
6908,15.9
6916,20.2
6917,22.2
6919,14.5
6921,3.0
6922,12.3
6923,14.7
6926,17.9
6927,8.8
6928,5.8
6931,0.5
6933,19.2
6936,7.7
6937,12.8
6938,4.2
6941,-2.1
6943,20.9
6944,13.8
6948,6.3
6951,27.2
6952,-9.8
6953,11.7
6954,23.4
6955,15.3
6958,10.4
6964,41.6
6966,11.0
6968,23.3
6970,27.5
6971,17.8
6972,6.4
6974,11.0
6975,8.2
6977,21.7
6979,27.1
6980,10.0
6981,10.1
6982,11.2
6986,33.9
6988,15.8
6990,6.1
6991,3.4
6992,17.0
6993,21.0
6994,17.9
6995,11.7
6996,11.8
6998,18.5
6999,8.3
7000,25.2
7001,24.1
7006,22.1
7009,15.9
7010,13.0
7011,13.2
7012,24.7
7013,17.9
7014,20.1
7015,6.7
7018,15.3
7020,3.0
7021,15.4
7023,10.9
7024,13.2
7026,3.3
7027,27.2
7028,13.2
7030,0.5
7031,23.3
7033,24.0
7034,10.7
7036,13.6
7037,14.2
7038,10.4
7041,0.5
7045,24.6
7046,6.9
7048,13.5
7049,26.0
7050,3.4
7051,7.9
7052,-7.2
7053,23.0
7054,4.6
7056,15.6
7060,3.7
7063,36.5
7067,12.4
7070,8.0
7072,3.1
7073,14.0
7074,-12.4
7078,20.0
7083,18.9
7085,5.3
7087,26.2
7088,15.4
7089,5.3
7092,13.6
7093,11.7
7096,14.0
7098,10.8
7099,4.5
7103,6.2
7105,9.4
7109,5.6
7111,4.9
7113,9.1
7115,11.2
7116,14.1
7117,9.6
7119,20.7
7120,0.5
7121,27.2
7123,21.3
7127,12.1
7129,5.4
7131,-2.1
7132,23.3
7134,20.4
7142,31.3
7144,27.7
7146,14.7
7147,4.4
7149,21.1
7150,6.1
7151,26.3
7152,5.0
7153,-22.7
7158,19.1
7161,16.1
7162,17.4
7165,28.8
7167,12.9
7169,27.1
7171,26.4
7176,24.2
7177,18.5
7179,13.1
7180,8.4
7186,11.3
7187,25.1
7188,16.8
7189,8.2
7194,7.9
7196,11.1
7197,18.2
7199,3.0
7204,9.6
7208,19.8
7209,3.0
7211,14.5
7212,16.7
7214,3.2
7215,20.2
7216,4.2
7217,7.6
7218,9.1
7220,-2.1
7221,21.7
7222,15.0
7224,14.9
7226,21.3
7227,16.6
7228,9.1
7229,3.1
7230,19.1
7231,-9.8
7232,17.1
7233,7.1
7234,18.1
7237,13.8
7242,41.6
7244,9.0
7245,7.7
7246,23.4
7249,20.3
7250,18.1
7251,15.0
7253,22.7
7254,6.3
7255,5.6
7256,17.1
7257,24.5
7258,10.2
7259,4.0
7264,24.7
7265,36.5
7266,26.0
7271,11.1
7272,22.1
7275,23.4
7276,18.5
7282,26.4
7283,25.4
7287,15.9
7288,14.5
7289,18.4
7290,17.8
7292,7.7
7298,7.1
7299,3.0
7300,14.8
7301,8.9
7302,26.3
7303,7.0
7305,21.0
7308,24.7
7309,3.0
7310,19.3
7311,4.2
7312,9.0
7314,7.6
7318,17.4
7320,-4.7
7321,9.3
7325,27.8
7326,4.6
7328,18.4
7331,-12.4
7334,8.7
7335,23.0
7337,15.9
7341,10.3
7342,8.3
7343,10.4
7344,39.1
7348,19.5
7349,18.1
7352,16.1
7354,25.2
7355,18.5
7356,3.2
7358,19.8
7362,11.3
7365,11.0
7366,21.0
7374,5.1
7376,24.1
7377,8.2
7378,20.3
7380,6.2
7381,12.7
7384,25.9
7385,14.1
7386,13.9
7388,20.2
7389,8.2
7391,18.6
7392,8.0
7395,27.0
7396,6.1
7397,3.1
7398,23.8
7399,0.5
7402,22.7
7404,27.6
7405,8.3
7407,6.9
7409,0.5
7410,22.3
7411,13.8
7413,18.6
7415,22.5
7418,25.8
7419,0.5
7420,15.3
7421,14.7
7426,8.5
7427,26.5
7428,13.4
7429,21.1
7430,-7.2
7432,20.5
7434,3.8
7437,13.0
7438,26.2
7440,21.3
7441,36.5
7447,3.7
7448,23.1
7449,3.1
7453,-9.8
7455,17.0
7462,4.3
7463,12.5
7464,33.9
7470,3.9
7473,18.4
7474,7.2
7475,15.6
7476,15.9
7477,10.6
7479,18.8
7481,5.1
7482,23.6
7484,19.0
7487,10.8
7491,22.8
7492,10.4
7494,4.3
7496,25.4
7497,9.8
7498,-2.1
7499,19.9
7500,24.7
7501,14.8
7502,22.0
7503,15.7
7505,13.7
7509,13.5
7510,-9.8
7512,12.3
7513,26.2
7516,24.0
7522,41.6
7528,13.7
7532,7.0
7533,0.5
7534,24.1
7536,9.1
7541,13.1
7543,36.5
7544,23.1
7545,19.6
7546,11.9
7548,24.2
7549,23.2
7552,13.1
7555,18.5
7558,26.9
7563,9.6
7566,18.5
7567,13.3
7570,4.8
7571,17.3
7577,3.0
7578,9.7
7581,17.9
7587,19.1
7588,0.5
7590,8.2
7591,16.1
7593,8.4
7594,17.7
7598,22.3
7599,-4.7
7600,20.0
7607,21.7
7608,24.0
7610,-9.8
7612,20.7
7614,24.1
7616,18.0
7621,39.1
7623,4.9
7624,18.0
7625,20.7
7627,13.7
7628,17.7
7629,18.5
7632,3.0
7633,10.9
7637,10.8
7639,24.7
7641,17.9
7643,36.5
7645,23.0
7646,8.2
7650,23.6
7654,22.4
7655,15.9
7658,13.9
7659,8.4
7662,6.3
7664,8.6
7665,17.8
7666,15.9
7667,25.3
7668,5.5
7669,5.5
7672,21.0
7673,17.6
7674,26.4
7675,16.3
7677,3.0
7679,19.3
7680,19.5
7681,25.8
7683,11.2
7685,10.2
7688,0.5
7689,26.3
7691,8.7
7692,3.4
7693,20.5
7696,7.6
7698,-4.7
7699,14.3
7702,21.5
7703,27.7
7705,24.9
7708,6.4
7709,-9.8
7710,7.8
7713,17.8
7714,16.3
7718,25.9
7719,26.5
7720,10.5
7721,41.6
7722,23.7
7723,26.2
7724,7.0
7725,12.9
7727,14.5
7730,15.6
7731,15.3
7732,24.2
7733,8.2
7734,22.4
7737,16.2
7739,25.7
7740,6.2
7743,33.9
7744,14.3
7745,19.1
7746,19.2
7749,4.4
7750,19.4
7754,18.5
7755,27.3
7757,10.3
7759,12.7
7760,4.2
7761,20.4
7766,13.3
7767,27.7
7769,8.0
7770,21.1
7771,17.4
7775,12.3
7776,10.6
7777,-2.1
7778,21.7
7779,17.4
7780,16.4
7782,24.7
7783,9.8
7784,3.6
7785,20.0
7788,15.9
7789,-7.2
7791,20.2
7792,18.6
7794,17.2
7796,22.9
7799,7.8
7800,41.6
7801,20.0
7802,9.0
7806,3.1
7809,18.5
7812,-4.7
7814,26.0
7815,6.9
7818,12.9
7819,6.0
7821,24.0
7822,4.5
7823,31.3
7825,25.0
7827,13.4
7828,12.6
7829,6.3
7831,5.5
7834,15.9
7835,11.1
7839,25.5
7840,21.3
7843,20.1
7844,13.2
7846,10.8
7847,9.9
7849,15.5
7851,26.2
7853,26.7
7854,11.1
7857,21.8
7858,-2.1
7859,12.0
7862,15.3
7863,5.5
7864,27.2
7868,9.4
7869,-9.8
7871,13.8
7873,3.1
7874,4.3
7877,16.1
7878,11.4
7879,22.7
7880,41.6
7881,13.4
7882,16.3
7884,6.3
7885,20.1
7887,11.9
7888,13.4
7889,11.8
7891,5.6
7892,11.1
7893,6.8
7894,25.3
7895,24.5
7899,9.5
7901,22.2
7902,33.9
7909,17.7
7911,14.8
7913,10.4
7914,18.5
7916,6.6
7918,24.2
7924,8.0
7925,15.9
7928,16.2
7930,25.8
7932,28.0
7935,3.4
7936,22.4
7937,0.5
7938,23.9
7940,23.5
7941,24.7
7946,21.3
7947,0.5
7949,14.3
7951,27.0
7952,13.2
7954,4.1
7957,-2.1
7959,18.6
7960,23.2
7961,9.7
7963,25.9
7967,15.8
7968,-12.4
7969,13.3
7971,7.3
7977,22.9
7982,39.1
7983,11.3
7984,4.2
7985,18.3
7987,16.4
7988,3.8
7990,18.2
7992,24.8
7993,18.5
7995,21.7
7997,8.3
7998,19.7
7999,3.3
8000,22.3
8001,18.9
8002,23.6
8003,14.9
8004,21.0
8005,15.1
8007,24.1
8009,23.5
8011,17.4
8014,15.2
8015,8.2
8017,24.0
8019,11.4
8020,6.8
8022,9.7
8026,8.2
8028,8.2
8029,12.7
8033,9.8
8035,3.3
8036,0.5
8037,10.9
8038,4.1
8039,8.1
8040,21.8
8043,12.4
8046,20.3
8047,0.5
8048,10.5
8049,15.7
8057,0.5
8058,27.6
8059,17.3
8061,15.5
8065,19.0
8068,-4.7
8072,8.6
8073,9.3
8074,3.5
8075,11.4
8076,23.7
8078,22.0
8079,39.1
8081,4.1
8082,19.4
8083,13.8
8090,-9.8
8091,7.2
8096,18.4
8097,9.8
8098,19.3
8100,23.2
8101,33.9
8104,4.1
8105,8.8
8107,5.3
8108,25.8
8110,18.0
8113,22.1
8114,18.5
8117,11.3
8118,10.0
8119,24.0
8123,3.4
8125,13.3
8126,7.8
8128,10.8
8130,4.0
8131,5.4
8132,21.6
8133,19.6
8134,14.8
8135,16.3
8136,-2.1
8137,14.5
8139,18.2
8141,26.9
8142,5.8
8145,10.7
8147,-7.2
8148,15.8
8149,13.6
8150,9.7
8151,25.7
8153,16.1
8157,7.0
8159,44.2
8165,3.1
8166,16.0
8167,21.1
8168,24.0
8169,11.0
8170,-2.1
8176,19.0
8177,24.8
8178,20.4
8179,23.1
8180,9.9
8181,17.3
8182,31.3
8184,7.0
8185,19.2
8186,8.5
8190,27.3
8191,13.7
8193,21.4
8194,18.5
8197,12.0
8200,16.7
8201,20.9
8203,21.9
8205,8.2
8212,7.1
8213,13.5
8215,3.0
8217,15.0
8220,26.2
8221,8.2
8222,24.2
8223,14.1
8225,3.0
8226,20.5
8227,12.6
8231,7.5
8236,-2.1
8237,17.8
8238,19.4
8239,19.1
8240,20.0
8242,12.3
8248,-9.8
8249,27.5
8253,16.2
8255,25.3
8257,22.1
8258,14.7
8259,41.6
8260,15.5
8261,10.4
8264,6.7
8265,12.5
8269,12.0
8270,5.6
8272,11.5
8274,10.8
8276,18.6
8277,17.8
8280,3.6
8281,36.5
8282,13.5
8287,6.8
8289,6.3
8292,18.5
8296,21.1
8298,8.5
8302,14.8
8303,15.9
8304,14.3
8308,15.6
8309,17.5
8310,27.5
8311,25.1
8314,8.7
8315,3.0
8317,20.0
8319,17.3
8321,3.9
8322,23.3
8326,3.0
8327,22.1
8328,13.7
8331,23.6
8333,24.8
8335,20.9
8336,-4.7
8338,18.7
8339,14.2
8343,19.8
8345,16.8
8346,23.2
8347,-12.4
8349,27.6
8350,17.5
8354,20.6
8356,4.8
8357,22.8
8358,13.5
8359,39.1
8360,10.8
8362,8.1
8364,16.1
8366,27.7
8368,25.0
8370,16.6
8371,15.9
8374,18.6
8376,4.0
8377,14.3
8378,8.3
8381,15.9
8382,11.8
8383,21.0
8386,4.6
8388,15.4
8390,4.5
8392,17.5
8394,5.6
8397,12.2
8398,27.7
8400,22.1
8402,18.7
8403,7.2
8404,5.6
8405,23.7
8406,8.3
8410,9.6
8411,15.8
8414,13.3
8415,-2.1
8418,16.1
8422,24.5
8425,27.0
8426,-7.2
8430,20.1
8432,13.0
8433,6.8
8435,17.8
8436,20.0
8437,39.1
8438,7.5
8439,26.4
8442,22.7
8450,-7.2
8456,18.1
8458,18.8
8461,31.3
8462,11.3
8463,5.2
8464,25.0
8465,16.7
8466,6.9
8468,17.2
8469,22.7
8470,16.1
8471,12.7
8472,18.5
8475,19.4
8477,22.1
8478,15.8
8481,6.3
8482,23.2
8483,10.8
8488,19.2
8489,15.2
8492,25.9
8493,12.7
8494,22.0
8495,-2.1
8496,27.1
8497,3.9
8499,6.0
8500,14.4
8501,6.3
8502,15.0
8503,6.7
8504,16.9
8506,-9.8
8507,12.7
8508,18.2
8510,8.8
8512,9.9
8516,20.7
8517,19.6
8518,41.6
8519,24.2
8524,19.5
8525,18.2
8526,14.4
8527,4.2
8528,20.8
8529,3.0
8530,4.1
8535,15.3
8536,14.5
8538,18.4
8539,24.6
8540,36.5
8541,22.6
8543,24.6
8545,27.9
8548,7.8
8549,11.9
8551,18.5
8553,14.2
8555,23.0
8556,14.1
8557,21.5
8558,22.1
8559,24.0
8560,19.5
8562,15.9
8564,25.0
8568,5.5
8569,11.2
8570,18.8
8571,20.0
8573,0.5
8579,22.2
8581,14.0
8584,25.6
8585,0.5
8587,11.9
8591,19.1
8592,16.1
8594,18.4
8595,-4.7
8597,19.9
8599,21.5
8601,15.9
8603,20.8
8606,-9.8
8610,10.0
8611,4.1
8614,12.2
8615,15.7
8616,8.2
8617,39.1
8621,27.3
8625,10.8
8627,10.7
8629,8.2
8631,15.1
8632,4.3
8634,26.0
8635,5.6
8636,6.8
8639,33.9
8640,8.7
8643,19.2
8644,11.1
8648,4.2
8649,13.0
8650,27.8
8651,18.5
8653,5.8
8654,18.7
8655,12.8
8656,26.4
8657,16.3
8660,4.9
8662,3.9
8663,13.3
8666,19.0
8667,25.0
8670,14.3
8674,0.5
8675,14.2
8677,4.3
8680,25.1
8682,8.8
8683,27.3
8684,0.5
8689,23.1
8690,18.7
8692,11.9
8694,0.5
8696,15.8
8700,9.6
8703,27.4
8704,17.4
8705,-4.7
8707,10.3
8710,25.9
8711,27.7
8714,23.5
8715,13.6
8717,39.1
8720,24.4
8724,26.8
8726,23.4
8727,4.7
8728,-9.8
8730,8.4
8732,6.4
8733,11.0
8734,8.5
8737,15.5
8738,19.5
8739,31.3
8744,24.7
8745,11.9
8746,26.6
8748,12.2
8751,18.5
8755,20.7
8758,7.0
8759,25.8
8760,19.7
8761,19.6
8762,13.3
8764,8.8
8768,15.7
8771,27.0
8773,0.5
8779,22.4
8780,8.2
8784,-2.1
8786,3.9
8788,17.1
8790,5.2
8792,17.0
8796,33.9
8798,26.0
8799,19.5
8800,19.1
8802,27.9
8803,8.7
8804,7.4
8807,-22.7
8808,5.3
8811,24.4
8812,21.4
8814,4.7
8816,11.7
8817,21.5
8819,31.3
8821,16.4
8822,17.6
8823,22.9
8824,3.6
8827,14.7
8828,8.2
8830,15.9
8831,10.3
8838,12.6
8842,10.8
8845,14.8
8847,9.4
8850,7.4
8851,6.1
8854,-2.1
8855,21.6
8856,17.3
8865,-12.4
8866,16.6
8867,19.3
8869,26.0
8870,15.2
8871,21.5
8875,26.1
8877,18.2
8878,39.1
8880,13.6
8881,14.0
8884,11.4
8885,26.7
8886,25.4
8888,4.9
8889,18.5
8890,19.6
8894,13.1
8896,16.8
8900,21.0
8902,19.1
8903,26.6
8904,25.3
8906,5.5
8908,22.7
8911,10.5
8912,8.2
8915,9.8
8917,15.0
8919,20.5
8922,4.5
8923,8.2
8925,17.8
8928,23.4
8929,8.1
8931,15.2
8933,0.5
8934,14.2
8936,3.6
8938,27.9
8942,17.8
8943,0.5
8945,21.0
8946,6.1
8949,13.1
8951,19.6
8953,-2.1
8954,27.9
8955,27.3
8956,22.3
8957,3.7
8958,6.8
8962,27.0
8963,18.9
8965,-12.4
8967,27.2
8968,21.7
8969,17.4
8970,19.1
8975,12.6
8976,23.5
8978,39.1
8979,5.9
8984,25.3
8985,13.4
8987,14.3
8989,18.5
8990,6.1
8991,21.7
8992,27.7
8993,13.3
8994,26.8
8996,3.0
8998,27.9
8999,21.7
9000,18.5
9004,25.9
9007,9.9
9008,23.3
9012,5.6
9018,26.0
9019,6.4
9020,24.2
9022,5.6
9023,6.2
9026,20.0
9029,27.5
9032,0.5
9034,9.7
9037,17.7
9040,4.0
9041,25.5
9043,-2.1
9055,31.3
9056,8.2
9057,13.9
9058,13.6
9066,-22.7
9068,8.5
9069,13.5
9071,12.0
9072,21.5
9076,5.3
9078,28.8
9082,24.6
9083,18.4
9084,11.2
9087,18.9
9088,9.9
9090,18.5
9093,13.1
9096,9.9
9097,3.7
9101,10.8
9102,7.1
9103,9.1
9105,24.5
9106,4.6
9108,10.6
9109,12.9
9110,12.0
9112,25.0
9113,-2.1
9115,6.5
9117,23.2
9118,23.3
9119,5.8
9121,12.6
9122,15.2
9123,6.2
9124,-12.4
9125,8.5
9130,17.2
9134,22.6
9135,11.9
9137,39.1
9139,25.6
9140,12.5
9141,18.3
9143,11.4
9144,17.6
9146,6.9
9147,7.6
9148,18.5
9151,20.1
9152,12.4
9153,25.0
9155,23.3
9157,10.5
9159,21.0
9168,4.1
9169,8.4
9170,8.2
9174,24.5
9175,22.8
9176,23.4
9179,11.1
9180,27.3
9182,8.2
9184,21.6
9185,11.4
9186,4.6
9187,21.1
9188,8.2
9190,26.4
9191,27.2
9192,3.0
9193,22.5
9199,26.1
9200,9.4
9201,16.7
9202,0.5
9206,15.0
9209,7.5
9212,-4.7
9217,25.8
9218,8.7
9220,3.0
9221,14.7
9222,9.0
9223,8.8
9224,-12.4
9225,9.3
9226,12.0
9227,12.4
9228,21.5
9229,5.1
9236,39.1
9237,20.2
9242,10.3
9246,23.7
9247,6.7
9248,18.5
9250,5.3
9256,9.5
9257,22.5
9259,14.4
9260,18.5
9261,15.9
9266,17.7
9267,10.9
9268,4.6
9270,24.9
9271,3.0
9272,3.2
9280,3.3
9281,5.6
9282,11.1
9283,9.1
9284,15.4
9286,13.9
9287,5.4
9289,7.9
9290,20.5
9291,0.5
9292,23.1
9295,15.6
9296,4.5
9297,21.1
9299,16.4
9300,27.1
9302,0.5
9304,5.1
9307,8.2
9311,5.1
9313,8.2
9315,5.3
9316,4.6
9318,8.7
9320,15.0
9321,13.3
9323,-7.2
9328,18.8
9332,26.6
9333,3.4
9334,41.6
9335,23.0
9336,4.9
9338,14.4
9339,4.1
9340,19.8
9341,18.8
9342,11.0
9346,-4.7
9348,10.5
9354,11.3
9355,14.4
9356,4.3
9357,31.3
9358,19.1
9360,19.3
9363,3.1
9367,24.6
9368,15.9
9369,23.5
9370,19.4
9372,9.1
9375,23.2
9376,4.8
9378,26.6
9380,10.8
9381,7.5
9382,21.6
9383,3.3
9385,3.8
9390,7.6
9391,4.4
9392,-2.1
9393,27.0
9398,13.8
9400,11.4
9402,19.2
9403,-9.8
9404,26.6
9406,25.7
9411,3.5
9413,11.2
9414,41.6
9415,23.8
9416,7.2
9417,21.5
9419,5.4
9423,22.7
9424,3.7
9425,5.6
9428,13.2
9431,3.9
9433,10.9
9434,9.4
9435,21.5
9436,33.9
9438,17.2
9439,3.5
9440,27.6
9441,13.0
9448,18.5
9450,25.3
9452,8.1
9453,21.5
9457,6.5
9458,6.4
9459,15.9
9460,6.4
9462,3.9
9463,27.8
9465,8.8
9468,27.4
9469,6.3
9470,3.0
9472,19.6
9476,4.2
9478,12.4
9481,3.0
9485,19.4
9487,5.4
9489,19.6
9491,-2.1
9494,18.3
9495,4.2
9498,4.9
9499,22.0
9502,-9.8
9503,9.4
9504,10.7
9506,8.6
9508,5.5
9510,8.7
9511,7.4
9512,7.5
9513,12.5
9514,27.3
9515,39.1
9517,22.9
9519,7.0
9520,21.3
9522,9.4
9526,8.2
9532,23.8
9533,13.3
9534,10.1
9535,6.2
9536,33.9
9538,10.6
9541,15.5
9542,10.5
9543,23.1
9545,18.2
9546,13.7
9547,21.0
9548,3.1
9549,9.6
9553,15.8
9556,13.7
9557,9.7
9559,13.3
9560,21.6
9561,21.2
9565,17.6
9567,11.9
9568,13.9
9570,0.5
9571,14.3
9572,19.8
9573,18.6
9578,24.7
9581,0.5
9582,9.1
9585,19.5
9587,16.8
9588,18.6
9589,7.4
9590,14.8
9591,0.5
9592,8.8
9595,13.1
9599,22.4
9600,11.4
9602,-7.2
9603,7.4
9607,12.6
9608,27.0
9612,12.3
9613,39.1
9616,11.3
9617,24.2
9618,9.7
9619,22.1
9622,12.8
9624,-9.8
9627,6.9
9628,22.7
9629,24.8
9630,15.8
9631,18.5
9633,13.4
9635,31.3
9636,10.5
9637,9.7
9641,22.6
9644,12.2
9648,15.9
9650,9.2
9652,24.2
9656,20.4
9658,7.0
9659,10.8
9660,25.0
9661,22.4
9665,26.7
9670,-2.1
9671,26.1
9674,12.8
9678,21.0
9679,19.7
9681,-7.2
9683,11.5
9684,17.0
9685,20.5
9686,20.5
9688,13.2
9692,22.0
9693,41.6
9694,25.0
9698,17.4
9699,25.2
9700,21.7
9701,6.9
9703,8.1
9704,0.5
9708,25.8
9710,21.9
9715,36.5
9716,12.7
9717,26.1
9720,6.8
9722,5.6
9723,14.9
9725,6.9
9726,21.0
9727,14.4
9730,19.1
9732,26.4
9733,26.8
9738,15.9
9742,21.6
9744,16.7
9749,3.0
9752,8.6
9753,9.8
9754,26.5
9758,10.2
9759,3.0
9761,16.7
9767,15.5
9769,-2.1
9771,13.7
9772,19.7
9778,3.7
9779,22.6
9782,-9.8
9783,12.8
9784,16.5
9785,10.4
9786,14.8
9787,19.0
9788,18.4
9789,21.8
9790,22.0
9791,22.7
9792,4.9
9793,39.1
9795,5.4
9800,24.5
9801,19.8
9802,15.5
9804,5.6
9808,5.5
9809,25.4
9814,15.9
9815,33.9
9817,7.9
9818,14.5
9819,3.7
9820,3.6
9821,23.2
9822,14.8
9823,12.5
9826,21.0
9827,14.8
9830,7.2
9835,23.8
9837,15.9
9838,3.1
9839,5.4
9840,16.4
9841,13.6
9843,15.0
9844,16.8
9845,20.8
9846,16.9
9849,0.5
9853,6.5
9855,21.3
9860,3.0
9864,17.3
9867,5.9
9869,27.5
9870,-2.1
9871,27.5
9872,13.0
9873,7.9
9875,22.2
9877,22.6
9878,14.1
9880,7.6
9881,-9.8
9883,19.1
9885,24.0
9889,21.7
9890,27.8
9892,41.6
9893,18.8
9895,12.7
9896,20.6
9897,11.6
9898,13.1
9899,25.9
9900,7.8
9901,5.7
9902,6.5
9904,8.2
9905,26.3
9907,24.5
9911,17.7
9913,25.5
9914,3.3
9915,33.9
9916,12.9
9918,17.3
9919,15.6
9920,19.6
9921,27.8
9923,5.7
9926,18.5
9927,19.1
9929,20.6
9930,12.6
9932,10.3
9935,14.5
9936,18.5
9937,13.3
9938,14.3
9943,19.8
9944,13.3
9945,25.2
9948,8.6
9949,0.5
9950,11.2
9952,18.0
9956,3.8
9957,26.9
9958,5.7
9959,0.5
9961,11.7
9963,22.3
9965,3.7
9968,13.0
9969,0.5
9970,21.0
9971,17.2
9973,9.8
9976,17.6
9979,22.0
9980,-7.2
9981,5.0
9982,8.7
9983,9.8
9988,9.8
9989,14.9
9990,19.6
9992,39.1
9993,23.8
9994,19.4
9996,8.1
9997,20.1
10003,-9.8
10004,16.3
10006,5.5
10009,4.1
10013,17.1
10014,22.9
10015,26.2
10016,9.6
10019,21.2
10021,26.9
10022,24.6
10024,15.3
10025,8.4
10028,5.6
10030,4.8
10034,9.3
10037,16.6
10038,5.6
10039,-4.7
10041,3.3
10044,10.1
10045,19.4
10046,17.8
10048,19.4
10049,22.3
10050,4.2
10051,10.8
10052,41.6
10055,25.5
10061,7.0
10062,25.8
10063,6.8
10064,18.5
10065,17.0
10069,25.0
10070,24.3
10071,26.1
10073,13.1
10075,16.6
10076,3.8
10077,15.9
10080,27.1
10081,24.9
10082,18.1
10083,9.2
10084,6.6
10085,26.9
10086,22.2
10089,3.0
10090,9.4
10091,25.4
10092,26.4
10093,10.6
10094,9.5
10096,6.9
10097,4.5
10098,11.0
10100,-15.0
10104,4.9
10105,4.5
10107,15.0
10108,27.6
10111,5.4
10113,23.9
10114,26.2
10115,31.3
10117,5.5
10120,26.0
10121,12.6
10122,5.0
10125,22.7
10126,5.5
10127,10.8
10128,20.5
10129,5.2
10135,15.4
10137,8.1
10139,-4.7
10140,6.4
10142,20.6
10145,17.6
10146,10.7
10148,24.2
10149,3.4
10151,41.6
10153,6.4
10155,25.7
10156,19.7
10157,3.1
10158,27.3
10159,16.0
10160,23.1
10164,18.5
10167,5.2
10177,13.3
10184,5.3
10185,6.3
10186,16.3
10187,24.3
10189,13.3
10191,10.5
10192,6.4
10193,15.1
10194,20.4
10195,22.3
10196,18.2
10197,27.2
10199,14.9
10200,15.8
10202,-22.7
10203,15.3
10204,10.4
10205,13.7
10207,18.1
10209,9.0
10212,22.7
10213,5.0
10214,25.9
10215,21.0
10216,15.5
10218,18.4
10219,5.8
10220,27.6
10222,6.1
10223,17.4
10226,10.2
10227,0.5
10229,9.2
10230,6.8
10234,11.7
10235,24.9
10238,-7.2
10242,4.9
10244,8.9
10245,26.0
10246,8.4
10248,4.3
10249,17.9
10250,13.8
10252,41.6
10253,19.5
10255,12.7
10260,13.2
10261,9.3
10262,11.6
10263,7.2
10264,18.5
10265,11.1
10267,21.9
10270,15.4
10271,10.8
10276,10.8
10277,4.9
10281,6.5
10282,12.1
10283,15.2
10284,23.2
10286,26.4
10287,14.7
10288,16.6
10289,18.5
10292,20.6
10293,9.9
10294,16.1
10299,25.7
10300,13.6
10301,-22.7
10302,18.1
10304,15.7
10305,27.5
10306,17.9
10311,27.5
10314,3.8
10315,23.6
10316,5.6
10318,27.8
10321,20.5
10323,11.5
10324,14.3
10325,26.5
10326,25.9
10327,8.2
10328,0.5
10330,12.1
10333,15.6
10335,25.2
10338,24.3
10339,-9.8
10343,7.6
10344,19.0
10346,5.2
10347,6.9
10350,13.1
10351,41.6
10354,22.0
10355,12.0
10356,12.2
10357,9.5
10360,24.8
10363,18.5
10365,14.9
10366,19.6
10370,5.1
10371,24.5
10373,19.3
10375,9.9
10377,10.8
10378,24.0
10380,3.1
10383,23.5
10385,15.7
10386,26.9
10389,23.6
10391,13.5
10392,7.5
10394,4.0
10397,20.5
10399,14.1
10400,23.2
10401,-12.4
10405,24.9
10406,3.1
10408,19.0
10409,23.3
10411,13.2
10415,18.5
10416,18.0
10417,19.8
10423,27.7
10424,23.1
10425,5.5
10426,6.4
10427,0.5
10428,6.5
10430,14.8
10431,7.2
10438,-9.8
10440,15.5
10441,5.8
10445,11.8
10447,22.8
10448,7.0
10450,8.7
10451,41.6
10452,16.8
10455,7.5
10456,16.9
10457,10.1
10462,16.4
10464,21.0
10465,14.8
10468,24.7
10475,16.2
10476,8.2
10479,11.9
10481,18.1
10484,17.9
10487,0.5
10489,3.8
10490,9.8
10492,4.0
10493,21.8
10494,9.7
10496,18.1
10497,5.9
10499,-12.4
10500,12.3
10502,22.5
10503,20.6
10506,26.4
10509,11.7
10510,3.7
10512,24.3
10513,31.3
10514,22.4
10517,7.9
10518,27.2
10519,26.6
10522,26.2
10524,7.1
10525,13.3
10527,19.1
10529,17.8
10530,26.1
10531,3.2
10532,26.2
10533,10.2
10537,-2.1
10538,19.0
10541,26.4
10546,12.0
10547,15.2
10549,27.5
10550,41.6
10554,18.0
10555,14.6
10557,9.0
10558,6.2
10560,16.5
10561,24.3
10562,18.5
10563,3.6
10565,10.5
10566,18.6
10567,25.8
10569,20.8
10574,11.2
10575,15.9
10577,10.5
10584,18.3
10586,24.8
10587,6.2
10588,8.2
10590,22.1
10593,22.0
10599,-15.0
10601,5.4
10604,19.4
10606,10.2
10609,16.9
10611,23.0
10612,31.3
10614,10.2
10615,25.1
10619,6.2
10620,3.9
10621,5.1
10622,15.7
10623,16.9
10624,18.3
10625,8.2
10627,3.6
10629,8.6
10631,11.6
10634,27.5
10635,17.0
10636,0.5
10638,20.8
10639,3.6
10640,27.9
10643,14.6
10644,17.6
10645,5.9
10647,6.6
10648,23.6
10649,8.5
10650,19.5
10652,21.1
10653,21.0
10657,9.3
10658,25.9
10660,-15.0
10662,9.0
10663,21.0
10664,17.9
10666,3.3
10667,23.4
10668,16.8
10669,26.9
10672,25.9
10674,18.5
10675,22.6
10676,17.8
10678,10.7
10680,22.2
10684,16.6
10685,10.0
10686,-2.1
10688,17.4
10689,21.4
10690,23.9
10691,18.1
10692,13.7
10694,18.9
10697,20.2
10698,-17.5
10706,12.0
10708,6.8
10709,18.2
10710,16.6
10711,3.4
10712,4.7
10713,28.8
10717,4.2
10725,8.2
10727,11.3
10728,14.5
10730,8.8
10731,21.9
10732,12.3
10733,25.3
10734,5.1
10735,11.0
10736,0.5
10737,14.1
10739,5.3
10741,8.6
10744,19.6
10747,31.3
10748,4.7
10750,17.7
10751,16.8
10752,6.5
10753,8.5
10754,3.5
10755,10.0
10756,15.0
10757,13.0
10758,18.3
10759,19.0
10760,-7.2
10761,24.2
10765,10.4
10771,10.5
10772,23.6
10774,22.3
10776,15.5
10777,25.7
10778,11.1
10782,24.9
10785,3.0
10786,3.2
10788,10.0
10792,7.6
10797,-2.1
10798,21.6
10801,25.5
10802,7.4
10803,10.5
10804,3.1
10805,3.8
10809,41.6
10812,5.0
10813,20.7
10814,10.7
10815,21.0
10817,11.6
10821,18.5
10822,26.6
10824,13.0
10825,5.7
10826,16.4
10832,10.9
10833,13.3
10834,10.0
10835,26.9
10836,26.2
10838,12.6
10840,23.9
10842,17.1
10843,12.5
10844,7.1
10847,8.2
10849,7.1
10850,14.3
10851,9.0
10852,22.1
10853,8.5
10856,6.6
10857,22.9
10858,-12.4
10862,19.9
10864,10.3
10867,7.5
10869,8.6
10871,31.3
10872,5.1
10875,19.0
10876,26.0
10877,6.5
10881,12.7
10882,4.2
10883,3.5
10884,10.8
10887,23.7
10889,18.1
10890,12.8
10892,25.6
10896,-4.7
10899,20.3
10904,18.0
10906,14.1
10907,5.5
10908,10.4
10909,41.6
10911,6.9
10918,6.5
10920,6.3
10921,18.5
10923,10.6
10926,13.2
10927,16.5
10929,22.2
10930,25.6
10931,12.0
10934,13.3
10935,9.0
10936,7.4
10940,13.2
10943,18.1
10946,15.9
10948,14.9
10952,27.8
10953,3.1
10954,8.5
10958,-20.1
10959,6.2
10962,11.9
10965,3.8
10969,8.4
10972,23.6
10976,24.0
10977,17.7
10978,15.5
10979,10.6
10980,22.5
10981,23.5
10982,3.2
10985,3.0
10986,6.8
10994,13.4
10995,19.8
10996,-7.2
10997,4.2
10999,17.4
11000,19.1
11001,8.3
11002,18.5
11003,15.2
11004,15.2
11007,18.1
11008,3.1
11009,39.1
11010,19.2
11011,7.6
11013,17.5
11018,11.5
11021,18.5
11022,5.5
11024,6.7
11025,24.0
11026,12.4
11028,20.9
11029,10.0
11031,15.3
11032,15.9
11033,13.3
11035,12.2
11036,27.2
11040,10.7
11043,21.2
11045,17.5
11046,21.0
11049,18.5
11053,25.5
11056,8.7
11057,10.1
11059,-20.1
11064,22.5
11070,21.2
11071,27.4
11072,21.0
11073,6.4
11074,8.9
11075,27.1
11076,19.3
11077,14.7
11083,25.9
11084,-2.1
11087,16.4
11088,4.9
11091,11.3
11093,10.2
11095,21.3
11096,23.9
11097,-15.0
11099,14.1
11103,22.6
11104,6.0
11105,10.4
11107,21.9
11109,7.9
11111,28.8
11112,18.4
11113,25.8
11114,26.0
11119,19.8
11120,27.4
11123,10.8
11125,13.7
11127,13.5
11130,13.7
11132,4.5
11133,7.4
11135,14.8
11136,-4.7
11140,25.4
11141,13.5
11144,6.1
11145,22.6
11147,7.0
11148,41.6
11149,5.2
11150,20.5
11151,11.0
11154,16.7
11160,21.0
11161,13.2
11164,4.9
11165,21.0
11166,4.5
11167,6.3
11169,4.7
11172,10.8
11174,5.8
11178,15.0
11180,16.7
11182,26.2
11184,3.6
11186,21.0
11191,18.7
11192,14.9
11193,13.7
11196,11.4
11198,-20.1
11199,6.4
11200,8.0
11203,15.2
11205,16.5
11206,17.6
11207,4.8
11209,6.5
11210,23.5
11211,21.0
11215,15.9
11216,10.1
11217,15.8
11218,13.4
11224,0.5
11225,25.8
11226,5.1
11227,10.2
11228,6.8
11229,10.8
11230,3.5
11231,3.7
11235,-4.7
11236,21.7
11240,14.3
11243,11.4
11247,25.7
11248,41.6
11253,17.2
11257,16.4
11258,25.7
11260,21.0
11264,6.7
11268,9.1
11269,20.4
11273,8.2
11274,8.2
11275,9.5
11277,11.6
11279,19.5
11283,15.6
11284,-2.1
11287,12.5
11288,18.3
11292,6.2
11293,15.0
11295,27.1
11296,-20.1
11300,20.8
11301,5.6
11302,19.5
11303,8.0
11304,20.1
11305,13.3
11306,17.3
11307,25.1
11309,11.5
11310,8.3
11311,26.2
11314,16.1
11315,4.0
11316,5.5
11321,9.9
11323,5.6
11327,24.8
11329,23.4
11332,23.1
11333,7.1
11334,-2.1
11335,13.7
11336,10.3
11337,13.8
11338,24.6
11339,24.9
11341,24.8
11342,12.2
11343,23.1
11345,15.2
11346,41.6
11350,27.8
11351,10.9
11352,11.6
11355,27.1
11356,25.7
11359,15.9
11361,15.2
11366,23.9
11368,19.8
11371,15.9
11372,10.9
11374,21.8
11377,18.3
11381,27.4
11383,9.5
11384,0.5
11386,14.0
11390,10.3
11391,13.6
11393,7.1
11394,23.4
11396,-12.4
11398,17.4
11399,20.7
11400,23.8
11401,3.5
11402,13.2
11404,6.5
11405,3.1
11406,13.3
11409,31.3
11410,6.2
11420,17.2
11421,10.8
11422,11.2
11431,16.3
11432,11.3
11433,-2.1
11434,5.7
11436,23.5
11440,4.4
11444,13.5
11447,41.6
11448,6.2
11451,14.2
11453,13.4
11454,15.3
11457,17.9
11459,18.5
11461,8.8
11462,11.0
11463,3.5
11464,14.0
11465,22.4
11468,9.4
11469,24.9
11471,13.3
11472,24.7
11473,4.8
11474,17.4
11475,10.5
11476,24.7
11478,19.4
11480,25.5
11481,7.7
11482,22.7
11484,8.2
11485,10.3
11494,15.3
11495,-15.0
11497,16.8
11500,24.4
11501,26.4
11504,20.5
11507,21.2
11508,3.2
11509,28.8
11511,25.8
11513,27.3
11514,21.1
11519,14.6
11520,24.9
11522,10.8
11523,12.3
11530,24.6
11531,10.3
11534,-4.7
11537,19.4
11538,14.5
11539,8.1
11540,19.2
11541,16.2
11543,5.3
11545,14.3
11546,41.6
11548,20.0
11549,26.7
11551,27.6
11553,6.6
11557,9.1
11558,18.5
11560,14.1
11561,21.3
11563,6.9
11569,4.4
11571,10.8
11572,17.2
11574,20.6
11577,10.9
11579,20.9
11583,12.9
11584,15.9
11586,13.0
11587,21.2
11588,3.3
11589,7.9
11590,18.8
11595,19.8
11596,-22.7
11599,24.2
11600,22.6
11601,23.2
11606,13.7
11607,3.1
11609,4.7
11610,21.0
11611,6.5
11613,22.8
11616,6.8
11618,23.5
11619,24.0
11620,25.3
11621,21.0
11622,0.5
11623,15.9
11626,15.6
11631,9.7
11632,12.7
11633,-4.7
11634,9.3
11638,27.1
11646,41.6
11649,16.6
11651,8.1
11653,21.8
11654,13.6
11655,14.3
11659,18.5
11660,17.4
11661,3.6
11662,22.7
11663,7.2
11665,27.4
11667,16.5
11669,13.1
11671,10.8
11672,21.1
11675,19.0
11681,20.4
11683,23.6
11684,12.5
11686,24.3
11689,19.0
11690,9.3
11693,25.9
11695,25.3
11696,-17.5
11699,24.9
11702,18.0
11705,3.6
11706,27.6
11709,25.9
11710,21.0
11714,10.0
11715,20.9
11716,4.3
11717,24.7
11719,6.6
11720,18.5
11722,0.5
11724,22.1
11726,5.3
11727,17.1
11728,8.4
11729,4.2
11730,19.3
11731,25.2
11734,-9.8
11735,3.0
11737,5.7
11743,11.3
11744,12.8
11746,39.1
11752,14.9
11753,22.7
11754,16.3
11755,20.3
11756,20.7
11757,4.5
11758,18.5
11759,24.9
11760,8.4
11762,16.1
11763,15.7
11764,19.0
11770,8.2
11772,21.2
11773,3.9
11774,9.4
11779,4.7
11780,10.0
11783,-4.7
11784,9.8
11789,4.6
11790,13.1
11791,25.3
11793,11.5
11795,-17.5
11799,20.2
11805,23.8
11807,7.8
11808,26.2
11809,18.9
11813,5.6
11814,15.9
11816,8.4
11817,10.8
11818,11.0
11819,15.6
11821,5.6
11823,7.9
11825,18.6
11826,3.3
11827,26.1
11829,15.9
11831,10.9
11832,-2.1
11833,10.0
11835,5.7
11836,24.0
11837,14.3
11840,9.6
11843,5.3
11844,26.2
11845,41.6
11850,3.9
11851,25.2
11852,22.8
11855,19.4
11857,18.5
11858,13.1
11861,18.2
11864,20.3
11865,19.1
11868,8.1
11869,20.5
11870,15.9
11872,13.9
11875,5.7
11876,15.9
11877,12.7
11880,27.5
11881,15.9
11882,3.0
11884,13.6
11885,5.1
11886,17.3
11887,23.7
11891,12.6
11892,11.9
11893,-12.4
11896,21.4
11898,16.0
11899,19.6
11901,7.0
11902,4.6
11904,24.7
11905,21.0
11906,24.6
11908,31.3
11914,11.3
11915,27.5
11918,8.2
11919,7.7
11920,10.8
11921,11.9
11923,16.5
11924,17.7
11932,-4.7
11936,13.5
11937,14.0
11938,6.7
11942,12.2
11944,41.6
11945,12.1
11946,9.0
11947,9.2
11950,19.4
11955,22.3
11956,15.7
11957,15.9
11958,10.1
11960,12.7
11962,19.5
11969,13.3
11971,5.4
11973,25.6
11974,20.5
11976,11.4
11981,4.1
11982,13.3
11983,20.0
11987,16.5
11988,9.7
11993,13.6
11994,16.7
11995,-20.1
11996,18.1
12001,8.2
12002,23.4
12003,22.4
12004,3.2
12006,22.7
12008,23.6
12010,11.5
12011,6.9
12012,23.6
12013,7.5
12015,21.8
12017,13.7
12019,17.0
12020,3.0
12021,19.2
12022,9.4
12023,4.7
12026,12.3
12029,21.5
12031,4.5
12032,-4.7
12035,11.0
12037,24.9
12038,12.3
12040,10.5
12041,5.7
12042,9.0
12045,39.1
12046,23.1
12047,14.7
12048,7.8
12050,25.9
12051,16.4
12053,17.1
12055,14.8
12056,25.2
12057,18.5
12061,24.1
12062,19.0
12063,22.1
12068,8.6
12069,10.8
12070,24.6
12071,24.1
12072,26.8
12073,22.8
12074,14.7
12075,26.0
12076,26.8
12082,18.5
12083,5.9
12085,25.0
12086,15.5
12090,6.5
12094,-20.1
12095,6.2
12098,21.3
12099,19.3
12100,26.0
12102,8.0
12104,22.5
12105,4.5
12106,14.1
12107,5.1
12108,21.0
12112,4.8
12114,23.7
12115,20.9
12117,10.0
12118,7.8
12119,19.9
12121,0.5
12123,15.2
12127,25.2
12128,27.1
12129,11.7
12132,-4.7
12134,19.5
12136,24.2
12140,20.3
12142,14.2
12144,39.1
12145,14.7
12146,21.9
12148,23.9
12151,22.6
12156,21.0
12159,25.6
12161,26.4
12164,19.9
12166,17.6
12167,14.9
12169,8.2
12171,12.4
12174,20.7
12176,13.9
12177,22.3
12180,13.1
12181,-4.7
12185,14.4
12186,10.4
12188,18.2
12191,21.1
12193,-17.5
12197,12.4
12198,24.4
12202,7.9
12203,22.5
12207,26.2
12211,3.4
12213,18.4
12215,12.2
12217,7.0
12219,5.6
12221,23.6
12222,10.0
12224,6.5
12227,19.9
12228,20.1
12230,-2.1
12233,12.1
12234,22.5
12241,18.6
12242,26.9
12243,41.6
12247,7.6
12250,23.9
12255,17.5
12256,18.5
12257,22.0
12258,9.1
12262,18.6
12263,3.3
12264,3.5
12266,20.3
12267,15.0
12268,13.3
12270,9.1
12273,4.3
12274,5.9
12275,15.3
12276,19.0
12278,5.9
12280,0.5
12283,25.7
12285,11.2
12287,21.6
12288,5.4
12290,4.7
12292,-12.4
12293,20.7
12294,25.7
12296,13.5
12297,3.8
12300,3.8
12306,33.9
12307,13.0
12312,17.0
12314,20.9
12318,13.3
12319,19.7
12322,24.1
12323,25.7
12324,17.9
12329,24.6
12330,26.0
12331,-4.7
12332,8.1
12335,11.0
12337,15.7
12342,20.8
12343,41.6
12348,12.0
12349,25.4
12353,18.0
12355,18.5
12357,5.7
12359,17.3
12360,14.8
12361,5.3
12363,9.3
12364,9.1
12365,25.4
12366,15.6
12367,13.3
12369,13.3
12375,18.8
12379,24.3
12380,20.0
12381,10.8
12385,9.0
12386,6.9
12390,24.9
12391,5.3
12393,-20.1
12394,27.9
12395,15.4
12400,6.5
12403,19.4
12404,13.6
12405,6.7
12406,23.6
12410,16.0
12411,10.8
12413,16.5
12414,9.6
12415,25.2
12416,25.5
12417,27.7
12419,3.0
12423,15.5
12430,-4.7
12431,6.2
12432,3.1
12434,23.3
12438,20.2
12439,21.4
12440,19.4
12442,3.5
12443,41.6
12445,12.8
12451,4.2
12453,10.6
12455,18.5
12460,21.7
12461,22.7
12464,11.0
12466,17.7
12467,17.0
12468,10.8
12469,11.4
12471,8.2
12473,6.6
12476,24.9
12479,13.0
12480,15.9
12482,19.3
12483,21.2
12484,25.0
12485,20.4
12486,8.0
12488,8.9
12491,25.5
12492,-22.7
12494,24.1
12496,25.7
12498,12.5
12500,20.8
12502,23.8
12503,8.0
12505,3.3
12507,21.0
12508,25.7
12509,4.4
12512,3.9
12515,4.3
12516,23.5
12518,17.7
12519,0.5
12521,4.6
12523,14.1
12525,5.8
12526,3.1
12528,26.5
12530,-7.2
12533,24.3
12534,16.3
12536,4.1
12538,16.2
12541,27.6
12542,41.6
12543,8.8
12544,20.5
12550,10.0
12553,11.4
12555,18.5
12557,25.0
12558,18.0
12560,7.5
12562,20.1
12564,18.5
12565,8.8
12566,26.1
12567,10.8
12569,20.7
12570,18.8
12575,13.4
12576,5.2
12577,22.3
12580,21.0
12582,12.8
12583,16.3
12586,19.1
12588,15.8
12590,23.3
12591,6.5
12592,6.4
12593,-15.0
12595,18.9
12596,16.0
12597,11.7
12598,27.6
12599,22.0
12600,10.6
12603,14.5
12604,20.4
12605,9.4
12606,18.5
12607,14.4
12609,3.1
12613,11.7
12614,20.9
12615,4.8
12617,23.7
12618,0.5
12625,27.9
12626,3.9
12627,11.7
12628,16.7
12629,8.3
12630,-7.2
12635,22.5
12636,9.1
12639,24.6
12641,13.8
12643,41.6
12645,26.2
12646,18.1
12648,18.5
12650,10.3
12652,6.5
12654,16.9
12655,18.5
12657,27.7
12660,21.7
12666,6.5
12667,8.2
12668,13.6
12669,8.8
12670,28.0
12671,21.3
12673,11.9
12675,3.7
12679,-4.7
12680,21.2
12682,13.1
12684,15.1
12689,15.0
12691,-20.1
12692,24.7
12697,15.7
12699,15.0
12704,24.7
12705,26.2
12706,6.1
12707,16.3
12712,23.3
12713,8.4
12718,3.0
12720,26.2
12722,13.8
12723,16.1
12725,19.6
12727,11.9
12728,5.2
12729,-2.1
12734,19.4
12735,25.0
12736,22.6
12737,7.0
12739,26.1
12740,7.3
12741,41.6
12742,7.0
12743,13.6
12746,13.9
12747,15.9
12748,20.3
12749,3.3
12753,15.9
12756,20.5
12758,7.9
12761,19.1
12762,5.1
12763,12.9
12764,23.4
12765,7.2
12766,15.9
12767,16.8
12768,19.0
12769,19.9
12773,20.9
12774,27.2
12776,3.0
12777,10.3
12779,5.6
12783,17.6
12784,23.2
12787,17.1
12790,-15.0
12791,5.7
12795,11.1
12796,18.6
12797,15.0
12798,6.8
12799,11.1
12802,18.1
12803,15.4
12804,31.3
12805,10.4
12808,16.7
12809,7.7
12811,16.9
12812,27.0
12813,16.3
12814,10.9
12816,10.8
12821,26.1
12824,26.0
12825,26.5
12826,10.3
12828,-4.7
12833,22.3
12835,5.7
12836,26.7
12837,12.7
12838,15.1
12841,41.6
12842,17.6
12843,17.3
12844,26.8
12848,6.5
12849,26.9
12850,24.6
12851,24.7
12854,18.5
12855,11.8
12856,5.3
12859,16.3
12860,5.0
12861,5.9
12863,27.4
12865,16.1
12866,15.9
12868,4.0
12869,24.8
12870,12.0
12872,4.1
12873,21.0
12874,7.6
12875,9.7
12876,20.6
12877,7.5
12878,13.3
12879,26.7
12882,17.0
12885,25.2
12888,11.7
12890,14.6
12891,-22.7
12894,4.2
12896,8.8
12899,3.4
12900,6.5
12901,7.9
12902,6.1
12904,21.3
12905,21.0
12906,6.7
12911,18.8
12914,4.6
12915,15.7
12916,23.9
12917,0.5
12920,3.9
12927,9.9
12929,-4.7
12930,17.3
12931,27.2
12932,13.0
12933,19.1
12934,11.6
12937,27.9
12938,7.1
12939,24.3
12940,13.2
12941,41.6
12942,8.3
12943,6.0
12945,17.0
12946,12.6
12948,25.2
12950,3.3
12953,18.5
12963,26.8
12964,19.0
12965,10.8
12966,3.5
12969,6.4
12971,9.5
12972,7.3
12973,12.6
12974,20.8
12975,6.5
12977,20.5
12978,17.4
12979,18.5
12982,12.1
12983,14.7
12986,22.8
12987,18.9
12988,27.9
12989,20.4
12990,11.2
12991,-20.1
12993,25.1
12994,20.3
12996,23.2
12998,22.1
13000,10.6
13003,26.7
13004,21.0
13006,27.0
13007,12.2
13011,13.2
13017,0.5
13019,22.4
13020,15.4
13024,4.2
13026,12.5
13028,-7.2
13031,25.6
13034,22.7
13036,12.0
13041,39.1
13043,10.6
13044,26.5
13046,8.5
13050,11.3
13052,4.6
13053,18.5
13054,12.5
13059,13.7
13060,16.7
13061,16.4
13063,23.6
13065,11.8
13066,8.2
13069,24.8
13071,8.0
13073,21.7
13074,9.7
13076,8.0
13077,-4.7
13078,10.4
13080,21.5
13081,8.7
13086,26.5
13087,11.8
13089,-20.1
13094,16.7
13099,13.7
13100,7.0
13101,13.4
13103,26.2
13104,15.4
13106,13.9
13108,12.8
13112,10.5
13115,10.8
13116,5.6
13117,6.9
13118,24.5
13119,23.3
13124,14.8
13127,0.5
13128,16.1
13131,3.1
13132,15.7
13133,18.2
13135,9.1
13136,22.3
13137,19.3
13138,33.9
13141,22.3
13143,18.3
13144,8.5
13147,23.7
13150,9.3
13151,3.0
13154,9.1
13156,27.4
13159,13.8
13161,17.9
13162,28.8
13164,11.4
13165,16.4
13166,11.9
13167,22.1
13170,22.8
13172,11.0
13175,8.2
13178,4.5
13182,27.9
13185,3.8
13186,7.4
13187,0.5
13189,9.7
13192,14.6
13195,21.3
13198,26.2
13199,3.2
13209,14.4
13210,-9.8
13213,10.0
13222,26.2
13223,25.9
13224,22.0
13225,22.0
13227,17.2
13229,20.4
13230,14.2
13231,25.9
13234,15.3
13235,5.6
13236,6.5
13237,27.3
13241,10.9
13242,18.9
13244,26.1
13247,0.5
13249,19.7
13250,27.2
13252,3.1
13254,17.1
13257,3.7
13258,33.9
13262,13.5
13263,11.4
13264,27.8
13265,5.7
13267,4.0
13271,3.0
13272,6.3
13274,20.4
13276,3.1
13278,27.8
13282,31.3
13283,3.6
13285,7.6
13286,17.1
13287,10.8
13289,11.6
13290,25.1
13291,6.5
13294,8.2
13295,14.6
13296,9.6
13298,20.1
13299,19.8
13300,8.8
13301,8.6
13304,15.3
13306,0.5
13309,24.5
13310,22.0
13311,7.7
13312,22.9
13313,21.1
13318,28.8
13322,5.5
13325,6.6
13328,19.4
13330,-7.2
13337,17.4
13338,9.9
13339,24.7
13341,13.0
13342,26.2
13344,7.6
13346,14.5
13348,9.6
13350,16.8
13352,24.0
13353,12.5
13355,5.6
13356,7.6
13357,19.7
13360,5.8
13362,4.3
13366,-2.1
13369,12.1
13370,8.6
13375,7.8
13376,20.9
13377,11.8
13378,10.3
13379,41.6
13385,26.9
13386,9.5
13388,21.9
13391,15.9
13392,27.4
13397,23.0
13400,23.6
13402,18.6
13404,15.9
13405,17.6
13408,11.1
13413,5.0
13414,19.6
13415,26.1
13416,8.2
13417,11.6
13418,11.9
13419,21.9
13421,8.5
13424,14.3
13427,-15.0
13428,3.8
13429,22.1
13430,6.4
13431,7.7
13432,24.1
13433,13.4
13436,8.0
13438,14.1
13439,12.6
13440,27.9
13442,31.3
13443,6.5
13444,5.2
13448,10.9
13449,14.9
13452,27.1
13453,21.0
13454,10.8
13457,22.1
13459,21.7
13466,-4.7
13468,22.0
13470,9.4
13472,5.5
13473,21.8
13478,41.6
13480,3.7
13484,9.4
13485,6.0
13487,27.4
13491,18.5
13493,19.4
13494,12.8
13495,3.4
13497,18.5
13498,4.5
13499,17.3
13501,5.1
13504,10.8
13506,23.8
13511,9.0
13512,22.8
13513,8.9
13514,18.5
13515,11.4
13516,13.3
13517,4.8
13522,21.6
13523,26.5
13528,10.8
13529,-22.7
13531,3.8
13533,11.2
13534,18.4
13540,17.8
13541,6.6
13542,23.6
13543,23.5
13547,25.9
13548,20.6
13550,13.5
13551,8.7
13553,23.1
13554,0.5
13558,26.7
13563,26.8
13564,8.4
13565,-4.7
13571,22.5
13573,23.7
13575,16.3
13577,16.9
13578,26.9
13579,41.6
13580,10.7
13582,11.6
13583,26.4
13586,19.4
13589,19.3
13591,18.5
13592,4.4
13593,12.2
13595,23.4
13603,10.8
13609,13.0
13612,12.2
13613,24.5
13614,6.6
13616,18.5
13617,7.4
13620,21.1
13621,5.7
13623,9.4
13627,14.8
13628,-17.5
13629,22.2
13633,14.0
13634,14.7
13640,18.2
13642,23.6
13644,4.6
13645,21.0
13646,10.3
13647,3.6
13649,10.1
13650,9.5
13652,25.4
13653,16.0
13655,0.5
13656,20.7
13657,19.2
13658,9.2
13660,25.1
13661,12.3
13664,25.9
13665,5.1
13666,-7.2
13669,4.0
13670,19.3
13671,6.9
13672,27.5
13673,15.1
13674,6.0
13678,41.6
13680,19.1
13686,11.0
13687,13.2
13688,20.1
13689,5.9
13690,18.5
13691,19.8
13694,14.7
13698,6.2
13699,25.6
13700,27.0
13702,23.2
13704,10.8
13705,25.7
13706,8.3
13710,7.0
13713,5.8
13715,13.7
13716,26.2
13717,20.1
13721,5.1
13723,4.3
13724,15.6
13728,-9.8
13729,8.7
13730,18.5
13731,6.9
13735,17.8
13737,9.2
13738,17.2
13741,26.2
13742,4.9
13743,11.1
13748,8.4
13749,14.5
13753,5.6
13764,0.5
13766,22.5
13767,5.8
13769,3.7
13770,6.4
13772,15.8
13773,14.3
13774,3.0
13775,19.1
13776,33.9
13777,11.7
13779,17.9
13780,18.5
13781,21.2
13789,3.0
13791,12.3
13792,7.9
13794,9.4
13795,10.9
13796,3.3
13797,27.7
13800,31.3
13803,3.1
13804,22.4
13805,12.4
13812,8.2
13813,23.2
13815,9.1
13816,15.4
13817,18.3
13819,25.2
13820,21.6
13821,10.7
13822,11.7
13823,4.4
13824,3.0
13831,17.9
13832,15.6
13834,14.3
13835,28.8
13836,12.9
13837,8.9
13839,22.5
13841,9.8
13842,18.1
13844,21.0
13845,8.1
13847,13.2
13848,-9.8
13850,20.2
13851,20.0
13854,10.4
13856,4.7
13860,26.2
13861,20.8
13862,6.7
13863,22.7
13867,16.5
13868,5.4
13869,4.9
13871,9.1
13872,16.7
13873,5.6
13876,6.3
13878,7.3
13879,4.2
13880,21.8
13882,5.5
13884,-2.1
13885,9.1
13886,12.4
13887,5.5
13891,10.8
13892,6.7
13896,41.6
13898,5.5
13900,16.4
13901,16.7
13903,12.0
13904,8.9
13907,3.8
13909,16.8
13910,15.9
13913,7.9
13916,21.3
13917,25.0
13919,19.8
13920,16.1
13922,15.9
13925,21.1
13928,18.9
13931,8.6
13932,24.0
13933,8.9
13934,3.0
13935,17.1
13938,19.7
13940,5.1
13941,26.5
13942,15.0
13945,-15.0
13947,9.1
13950,12.5
13953,3.3
13954,21.7
13956,17.8
13957,10.7
13959,31.3
13961,15.2
13965,15.1
13968,4.2
13969,3.6
13970,6.2
13971,9.4
13972,13.3
13974,20.9
13976,22.5
13977,27.2
13980,25.8
13982,14.4
13983,13.8
13984,-4.7
13986,9.7
13988,12.1
13989,22.9
13991,22.9
13994,19.8
13995,23.9
13996,11.0
13997,41.6
13998,7.5
14002,14.5
14007,16.2
14008,5.0
14009,15.9
14011,5.8
14012,22.5
14015,21.8
14018,18.6
14021,13.3
14022,23.0
14023,10.6
14025,9.5
14026,12.1
14027,18.1
14030,6.5
14032,12.9
14033,10.8
14036,11.5
14043,23.6
14045,18.0
14046,14.3
14047,-20.1
14051,15.5
14055,8.9
14056,14.2
14057,20.1
14060,26.2
14063,5.9
14064,21.9
14067,15.5
14070,13.4
14071,6.5
14072,0.5
14074,13.6
14076,17.6
14077,13.0
14079,6.4
14080,13.0
14081,23.7
14083,26.1
14084,-4.7
14087,14.0
14092,8.5
14093,3.6
14094,12.1
14095,8.2
14096,44.2
14099,5.5
14100,16.6
14101,24.3
14106,14.9
14107,10.2
14108,27.8
14109,21.0
14110,7.1
14111,6.5
14112,20.2
14113,26.2
14117,22.0
14118,10.2
14120,12.5
14121,10.8
14124,4.7
14127,10.4
14132,12.8
14133,12.5
14134,18.5
14135,15.4
14139,8.1
14140,8.5
14145,10.4
14146,-22.7
14149,20.0
14150,4.8
14154,14.4
14158,22.5
14159,21.0
14161,20.1
14164,7.4
14166,19.8
14167,12.4
14168,10.4
14173,0.5
14178,8.7
14179,18.0
14180,27.8
14181,21.4
14184,-7.2
14185,8.2
14187,26.1
14188,9.5
14196,41.6
14197,3.7
14198,9.3
14202,10.8
14203,16.5
14204,17.1
14209,18.5
14210,17.8
14212,25.6
14213,26.2
14214,8.4
14216,16.8
14217,22.5
14221,10.8
14222,8.8
14223,3.7
14225,16.5
14226,15.2
14229,18.1
14231,19.0
14232,13.0
14233,26.2
14237,8.7
14238,24.1
14239,22.1
14240,17.4
14245,7.5
14246,-12.4
14249,26.8
14250,22.5
14253,20.7
14258,26.7
14259,5.8
14260,21.0
14261,19.1
14263,15.1
14268,4.4
14269,11.2
14270,8.6
14272,-2.1
14273,4.6
14274,25.7
14275,4.2
14276,21.6
14277,20.1
14278,17.5
14280,5.0
14281,14.3
14283,6.2
14284,-15.0
14289,6.9
14290,15.0
14292,16.0
14293,3.5
14294,16.4
14296,14.2
14297,17.6
14298,28.8
14299,27.7
14300,13.0
14301,4.3
14305,23.7
14307,11.4
14308,14.2
14309,18.3
14310,22.8
14311,8.2
14312,21.2
14314,19.4
14315,23.8
14316,14.9
14317,10.1
14318,18.4
14319,18.6
14320,4.4
14322,0.5
14327,7.0
14330,24.7
14333,28.8
14334,5.7
14335,6.1
14336,10.0
14337,24.3
14338,22.8
14340,27.7
14342,11.9
14344,21.4
14346,-4.7
14347,16.8
14348,16.4
14349,5.6
14350,26.5
14351,27.2
14352,13.8
14353,15.3
14354,18.8
14357,20.1
14358,26.2
14359,26.9
14363,20.7
14365,13.2
14369,9.1
14371,3.0
14372,27.8
14374,8.0
14377,5.4
14378,17.9
14381,27.5
14382,12.2
14383,-4.7
14384,11.8
14385,23.4
14386,21.6
14391,21.8
14393,5.6
14394,17.9
14395,41.6
14396,18.2
14398,8.4
14399,25.8
14401,15.7
14405,5.2
14407,15.9
14409,24.0
14412,8.3
14415,24.3
14417,20.8
14418,19.2
14419,13.3
14421,25.2
14422,4.3
14423,16.3
14424,26.7
14425,20.4
14428,5.8
14429,8.2
14432,5.6
14434,23.6
14436,15.5
14438,13.7
14439,15.3
14442,7.7
14444,-12.4
14452,20.1
14454,7.3
14457,31.3
14458,12.7
14461,23.1
14462,20.3
14463,13.5
14467,6.0
14470,10.8
14473,23.9
14477,4.9
14482,-4.7
14483,18.3
14486,16.2
14491,9.7
14493,3.9
14494,41.6
14495,24.2
14496,10.8
14497,18.1
14498,4.4
14507,14.9
14508,18.5
14509,7.1
14510,11.9
14514,10.4
14515,15.9
14516,11.3
14519,8.6
14520,13.3
14521,20.4
14522,25.6
14524,23.5
14526,8.9
14528,17.9
14529,17.6
14530,22.0
14532,13.3
14534,6.1
14536,15.0
14537,10.0
14538,21.3
14540,18.1
14544,-22.7
14547,6.9
14551,25.8
14553,22.4
14554,25.3
14556,5.6
14558,23.6
14559,23.2
14561,4.7
14562,18.0
14565,21.5
14569,11.1
14571,3.0
14574,25.0
14576,4.7
14581,21.5
14582,-7.2
14585,27.5
14586,26.7
14587,9.4
14588,15.3
14592,13.5
14594,7.5
14595,41.6
14596,26.4
14597,23.5
14599,27.8
14600,20.7
14606,13.1
14607,18.5
14609,3.9
14610,20.4
14611,12.9
14612,17.3
14618,9.5
14619,10.8
14625,9.5
14626,23.6
14627,21.1
14628,16.9
14629,11.0
14631,21.0
14636,5.3
14638,12.7
14640,22.4
14641,18.1
14642,3.2
14643,22.3
14645,-17.5
14646,14.8
14650,13.0
14652,19.5
14654,11.4
14657,26.9
14658,21.0
14659,4.2
14661,17.7
14663,20.4
14664,10.6
14667,25.0
14669,17.5
14670,-2.1
14672,14.6
14673,18.7
14674,25.9
14675,3.8
14676,27.6
14678,18.3
14679,24.7
14683,-12.4
14684,20.6
14685,14.5
14688,18.9
14690,25.3
14693,11.2
14696,28.8
14698,26.6
14700,26.1
14703,13.5
14704,15.7
14706,4.7
14708,8.2
14709,8.2
14719,27.1
14720,14.8
14721,0.5
14723,26.4
14726,14.3
14732,28.8
14734,15.0
14738,6.4
14740,15.0
14742,8.7
14743,10.3
14744,-9.8
14747,3.3
14750,26.0
14751,10.6
14756,26.2
14757,19.3
14758,19.2
14759,21.4
14761,26.6
14762,5.4
14764,18.4
14767,25.0
14769,24.0
14770,5.6
14771,8.7
14774,23.2
14776,13.3
14777,25.8
14779,7.6
14780,8.9
14781,-2.1
14785,10.8
14786,25.5
14787,5.4
14788,16.6
14790,19.2
14792,10.8
14793,41.6
14794,9.7
14799,10.4
14802,27.3
14805,24.8
14806,15.9
14810,9.8
14811,19.7
14814,19.7
14816,6.9
14818,15.9
14820,10.0
14822,23.2
14823,21.8
14824,3.2
14825,18.0
14828,14.0
14830,0.5
14831,11.8
14833,25.4
14834,5.3
14841,19.7
14842,-12.4
14844,15.9
14845,19.4
14852,27.5
14854,13.4
14855,9.8
14856,31.3
14857,18.3
14860,17.4
14861,5.6
14862,15.4
14863,7.8
14866,16.5
14867,20.7
14868,13.3
14869,25.4
14870,14.7
14872,11.0
14875,23.8
14877,6.4
14879,24.0
14880,-4.7
14881,27.8
14882,20.1
14883,18.6
14886,15.7
14887,23.6
14889,12.6
14891,4.9
14893,39.1
14895,25.5
14896,22.5
14898,3.7
14903,8.0
14904,12.6
14905,18.4
14906,21.0
14911,7.5
14916,17.4
14918,13.3
14920,27.8
14921,3.9
14923,26.9
14927,9.0
14930,10.8
14932,12.6
14933,12.5
14937,17.6
14940,26.4
14943,-22.7
14950,13.6
14956,21.0
14959,7.3
14960,7.2
14961,11.7
14967,8.8
14969,3.0
14971,12.6
14972,17.2
14974,5.3
14981,-4.7
14982,4.6
14984,23.6
14986,22.6
14989,7.8
14992,19.9
14993,41.6
14995,23.9
14996,22.8
15000,22.6
15001,10.6
15002,10.0
15005,21.0
15006,18.8
15009,6.7
15011,3.1
15014,13.6
15017,10.8
15018,7.4
15019,21.6
15020,9.8
15024,7.8
15026,23.1
15029,19.9
15030,15.9
15031,16.5
15032,8.8
15036,9.0
15040,8.2
15041,12.3
15043,-22.7
15045,26.5
15046,21.4
15050,12.5
15051,25.6
15052,9.4
15055,3.9
15056,21.0
15059,13.9
15060,23.2
15062,23.3
15064,7.4
15066,9.2
15068,17.1
15069,-2.1
15071,12.6
15073,18.5
15074,6.3
15076,11.2
15077,3.5
15081,-15.0
15083,9.7
15087,11.5
15088,23.8
15089,17.4
15090,11.7
15091,27.4
15094,28.8
15098,24.3
15099,18.8
15100,26.4
15102,23.2
15103,27.7
15105,18.2
15108,10.8
15109,25.0
15112,26.0
15114,24.1
15115,24.6
15117,9.2
15120,-4.7
15123,13.7
15124,25.6
15126,24.8
15128,13.5
15129,11.2
15130,11.1
15131,5.4
15132,41.6
15134,24.5
15135,13.1
15136,4.1
15137,14.4
15138,23.1
15139,16.1
15140,3.1
15142,22.1
15144,18.5
15146,23.0
15148,11.5
15151,6.4
15154,15.7
15156,14.4
15157,13.3
15158,26.4
15161,27.6
15165,21.5
15169,18.3
15170,15.9
15172,13.0
15173,12.4
15175,27.1
15178,13.7
15182,-22.7
15183,17.7
15184,18.3
15186,9.5
15190,3.4
15191,20.5
15192,14.4
15196,23.6
15200,24.3
15202,19.1
15203,24.8
15204,24.7
15208,3.0
15209,13.8
15210,4.3
15212,24.2
15213,18.5
15214,25.7
15216,5.0
15217,27.1
15218,8.4
15219,-4.7
15220,16.1
15221,22.9
15225,26.8
15226,26.3
15228,14.2
15231,11.4
15232,41.6
15234,15.0
15235,12.0
15236,13.8
15240,11.1
15242,19.3
15245,18.5
15249,4.9
15251,21.2
15253,13.6
15255,3.5
15257,10.8
15261,5.4
15262,15.3
15268,10.3
15269,21.0
15272,17.1
15273,21.1
15278,7.5
15280,10.1
15281,8.2
15282,-20.1
15283,27.1
15288,18.3
15295,21.0
15296,19.0
15299,13.9
15302,15.9
15303,3.5
15308,0.5
15309,27.4
15310,26.2
15311,11.1
15312,25.7
15314,19.1
15315,22.5
15318,13.2
15320,-7.2
15321,20.7
15323,22.8
15324,8.7
15326,11.6
15328,4.1
15329,23.6
15331,21.7
15332,41.6
15335,9.6
15338,7.4
15339,17.0
15344,18.5
15349,4.8
15351,23.8
15352,16.4
15353,7.2
15354,11.3
15356,10.8
15361,14.1
15362,10.5
15363,3.8
15364,6.3
15366,4.4
15368,24.6
15370,28.8
15371,24.5
15372,16.5
15374,24.8
15375,28.0
15376,13.7
15377,7.3
15378,12.4
15379,23.8
15380,15.9
15382,-12.4
15384,22.7
15385,18.7
15387,22.0
15389,9.2
15392,19.2
15394,17.3
15395,18.5
15402,22.0
15403,13.2
15405,17.0
15407,4.3
15408,-2.1
15411,12.6
15412,11.1
15414,11.8
15420,-17.5
15421,3.5
15426,24.0
15427,3.5
15428,5.0
15429,22.1
15431,14.0
15434,28.8
15439,17.5
15440,18.0
15441,5.1
15442,23.2
15445,19.2
15447,8.2
15449,3.0
15450,10.3
15451,26.0
15454,24.5
15455,6.7
15456,24.7
15458,0.5
15463,20.7
15469,31.3
15473,14.5
15474,16.1
15475,22.0
15481,-4.7
15482,4.2
15483,8.4
15485,11.2
15487,6.7
15488,26.6
15490,21.7
15491,8.4
15492,10.6
15493,10.0
15494,23.6
15505,18.7
15507,5.6
15509,9.5
15510,15.7
15512,17.9
15515,21.7
15518,-4.7
15520,21.0
15522,8.8
15524,16.4
15531,41.6
15533,19.9
15534,6.8
15538,8.6
15539,14.0
15541,13.5
15542,14.9
15543,18.5
15544,24.1
15546,25.6
15551,14.2
15552,8.5
15554,6.1
15555,13.3
15558,14.2
15560,10.0
15568,8.2
15569,11.9
15570,14.5
15571,13.7
15574,19.9
15575,25.3
15578,12.7
15580,-15.0
15581,26.6
15583,14.1
15584,10.8
15585,4.0
15586,18.4
15593,31.3
15596,25.7
15597,25.9
15600,18.1
15601,23.3
15602,9.6
15603,15.4
15604,22.3
15605,10.8
15606,12.4
15607,9.8
15608,10.2
15610,9.0
15614,10.1
15615,15.6
15616,11.4
15618,-7.2
15621,17.7
15627,24.2
15628,14.2
15630,41.6
15632,14.5
15634,9.3
15635,23.6
15637,3.7
15639,21.8
15641,9.0
15642,12.7
15643,18.5
15644,13.5
15646,14.9
15648,3.6
15650,24.8
15651,3.6
15652,24.7
15655,13.3
15656,13.5
15659,11.9
15660,10.7
15664,14.1
15668,15.9
15670,8.0
15673,5.2
15674,10.9
15676,14.8
15680,-22.7
15682,8.2
15683,22.4
15684,4.5
15685,17.7
15686,22.7
15687,19.1
15688,4.2
15693,23.6
15694,24.3
15695,21.5
15697,22.9
15698,12.3
15699,11.9
15700,15.7
15704,9.1
15706,10.3
15707,0.5
15710,9.6
15711,9.1
15712,27.6
15713,23.0
15714,19.4
15716,13.6
15717,9.2
15718,-7.2
15720,26.8
15721,25.8
15722,24.6
15723,6.3
15724,13.3
15726,27.6
15727,18.8
15728,25.9
15730,41.6
15732,19.8
15733,3.3
15735,26.9
15736,9.5
15742,21.0
15746,3.7
15748,28.0
15749,21.4
15750,4.8
15752,21.4
15754,23.4
15755,10.8
15756,17.6
15757,21.8
15759,12.0
15763,13.5
15765,5.0
15767,20.2
15768,23.6
15770,17.9
15773,17.2
15774,21.4
15776,23.8
15780,-17.5
15781,27.8
15787,5.2
15788,5.5
15789,25.2
15794,21.0
15795,15.6
15796,21.7
15804,14.2
15806,0.5
15812,26.2
15813,13.0
15814,4.9
15815,21.3
15817,-7.2
15818,14.8
15821,13.6
15822,5.3
15823,19.1
15824,19.2
15825,15.8
15828,19.7
15830,39.1
15832,10.0
15834,14.5
15835,17.6
15836,13.0
15837,19.3
15838,22.5
15839,12.6
15842,25.1
15843,21.0
15845,20.7
15847,3.4
15849,12.3
15853,6.3
15854,13.1
15855,8.2
15858,27.4
15861,17.7
15866,-2.1
15867,3.4
15870,19.0
15871,4.7
15872,21.0
15873,20.5
15876,20.3
15877,3.1
15879,-20.1
15880,7.5
15883,20.6
15888,15.4
15890,25.7
15891,24.4
15892,28.8
15894,10.9
15895,24.0
15896,20.0
15898,18.6
15902,13.6
15905,3.0
15906,25.9
15908,4.7
15909,4.4
15911,4.7
15915,24.9
15917,-2.1
15918,16.3
15922,12.4
15923,10.7
15924,10.7
15925,24.7
15928,8.3
15929,41.6
15930,17.8
15932,5.3
15940,14.3
15941,15.9
15943,21.5
15946,11.5
15947,9.5
15950,10.5
15953,13.3
15954,10.6
15956,6.2
15958,7.7
15959,18.1
15960,10.1
15965,3.4
15967,5.6
15969,25.4
15971,24.8
15972,7.2
15973,21.1
15978,-12.4
15980,22.6
15989,15.0
15990,8.6
15991,31.3
15995,11.9
16002,5.1
16003,25.9
16004,10.8
16006,20.0
16009,21.9
16013,13.2
16014,10.8
16016,-4.7
16024,24.7
16026,15.4
16028,41.6
16029,10.6
16030,8.1
16033,27.2
16034,26.0
16035,4.9
16041,18.5
16042,19.9
16050,3.2
16054,13.3
16056,11.9
16057,12.3
16060,9.7
16063,26.6
16065,13.5
16066,13.3
16068,11.0
16069,23.4
16071,11.7
16076,26.8
16077,26.4
16078,-20.1
16080,22.4
16082,12.1
16084,7.2
16087,6.0
16089,16.8
16091,11.2
16092,23.6
16096,24.9
16097,23.2
16098,4.4
16099,17.4
16100,10.6
16104,25.2
16105,0.5
16106,22.8
16114,4.9
16115,7.3
16116,-4.7
16117,27.9
16119,27.5
16120,11.3
16121,23.2
16124,24.0
16127,27.3
16128,5.8
16129,41.6
16132,14.5
16134,21.9
16139,7.4
16140,16.5
16141,18.5
16142,26.6
16143,5.4
16144,8.5
16149,16.3
16153,13.3
16159,26.9
16161,5.3
16166,21.0
16170,25.3
16171,22.1
16178,21.3
16179,-20.1
16181,27.8
16184,27.0
16185,4.6
16187,9.5
16188,12.6
16189,9.5
16190,20.6
16192,21.0
16193,27.6
16195,7.3
16197,25.9
16198,5.6
16201,18.2
16202,12.2
16204,0.5
16205,14.6
16207,24.0
16208,27.5
16211,24.2
16213,24.0
16214,21.4
16215,5.5
16216,-7.2
16217,4.6
16222,10.9
16227,14.8
16228,41.6
16232,7.8
16236,5.3
16237,5.2
16238,21.1
16239,5.2
16240,9.2
16241,18.5
16243,11.3
16244,19.0
16245,12.1
16246,24.2
16247,26.8
16249,11.0
16252,4.0
16253,10.8
16254,4.5
16258,10.7
16259,3.3
16263,14.0
16265,5.2
16266,26.2
16268,20.8
16271,25.3
16273,18.4
16274,25.2
16276,13.2
16278,-12.4
16279,18.3
16280,10.6
16281,22.2
16283,11.0
16290,13.2
16291,21.0
16293,24.0
16295,13.8
16296,21.7
16301,10.6
16303,27.7
16304,10.6
16305,0.5
16306,22.6
16310,21.5
16311,7.6
16316,-7.2
16319,17.8
16324,6.5
16325,26.5
16326,24.4
16327,17.9
16328,41.6
16331,11.5
16333,4.4
16335,10.7
16337,5.1
16338,18.5
16340,18.5
16342,21.3
16345,5.6
16347,13.5
16349,5.6
16350,20.4
16351,12.6
16353,8.2
16355,19.0
16356,20.3
16357,5.3
16360,4.5
16361,21.8
16364,24.0
16365,0.5
16366,20.6
16371,16.2
16375,6.3
16376,-9.8
16378,19.6
16381,6.3
16382,21.5
16383,13.1
16386,6.5
16388,23.6
16389,39.1
16392,26.1
16394,6.8
16396,5.1
16397,23.3
16400,11.9
16401,18.5
16403,19.0
16407,7.3
16408,22.6
16409,23.9
16413,5.6
16414,17.2
16417,12.5
16418,6.7
16419,16.2
16420,18.8
16421,15.4
16422,23.0
16423,20.7
16424,21.0
16426,21.6
16429,3.3
16432,17.2
16433,6.5
16434,23.0
16435,18.8
16438,-22.7
16440,26.4
16442,18.8
16444,15.3
16445,22.0
16451,21.0
16453,16.8
16454,14.4
16455,20.6
16456,6.9
16457,3.8
16462,27.0
16463,0.5
16465,19.5
16466,25.8
16470,9.7
16472,11.5
16473,15.3
16474,6.2
16475,-7.2
16476,23.1
16478,16.9
16479,26.5
16480,6.6
16486,11.7
16487,39.1
16488,10.4
16489,7.7
16492,20.9
16493,4.1
16494,19.9
16496,15.8
16497,26.1
16499,19.1
16500,18.5
16501,20.7
16505,6.7
16509,18.8
16510,15.9
16511,3.4
16513,10.8
16515,12.5
16516,10.2
16518,3.7
16519,22.8
16522,23.8
16523,9.6
16525,26.2
16528,13.5
16530,12.0
16533,10.5
16534,14.9
16535,14.3
16537,-12.4
16541,23.1
16543,20.3
16545,18.2
16548,11.5
16550,21.0
16551,21.0
16562,3.6
16563,0.5
16568,24.8
16569,18.9
16571,27.3
16573,17.6
16575,-7.2
16576,11.3
16578,12.8
16579,20.2
16582,8.1
16587,44.2
16593,5.3
16596,12.7
16599,18.7
16600,18.5
16602,11.9
16603,23.1
16605,8.5
16606,17.0
16608,16.3
16610,26.2
16611,14.1
16612,8.2
16613,25.0
16615,11.7
16616,20.4
16618,25.8
16619,18.3
16621,23.7
16622,4.9
16623,0.5
16627,12.7
16629,27.0
16630,13.4
16631,6.2
16633,26.2
16634,24.1
16635,-12.4
16639,3.6
16640,5.2
16641,5.4
16642,21.2
16644,7.8
16645,12.6
16646,26.1
16649,31.3
16655,15.0
16659,17.7
16660,19.6
16661,13.3
16663,14.2
16666,25.1
16667,21.8
16668,18.4
16670,8.4
16671,3.4
16673,-2.1
16675,11.2
16676,22.0
16682,21.3
16683,24.4
16686,41.6
16689,16.0
16692,22.9
16693,22.1
16696,21.2
16697,17.0
16698,26.8
16699,18.5
16700,17.2
16701,10.7
16704,17.7
16707,21.8
16709,9.5
16710,23.2
16711,13.3
16712,21.3
16713,26.9
16715,8.8
16717,14.0
16722,17.0
16723,8.2
16724,17.7
16727,25.1
16729,26.9
16732,13.2
16733,8.4
16735,-12.4
16745,4.4
16748,31.3
16750,17.1
16754,21.2
16755,6.2
16756,21.3
16758,15.3
16760,10.8
16764,23.2
16765,9.4
16767,15.8
16771,15.9
16774,-4.7
16776,23.4
16777,16.2
16780,22.3
16781,23.9
16782,11.3
16783,20.2
16785,6.7
16786,41.6
16795,25.3
16796,12.2
16798,18.5
16801,19.6
16805,19.6
16807,19.6
16810,24.8
16811,13.3
16812,7.0
16814,25.7
16817,20.9
16819,25.5
16822,22.0
16823,15.9
16826,5.8
16830,8.5
16831,9.1
16833,8.2
16836,-22.7
16837,13.9
16840,15.7
16845,11.6
16846,16.4
16849,23.6
16850,10.5
16851,26.6
16852,13.6
16853,25.7
16854,19.0
16855,15.6
16856,18.3
16857,13.0
16861,11.1
16862,3.0
16866,16.8
16867,15.0
16873,-7.2
16874,9.7
16875,10.0
16876,11.1
16877,17.4
16878,11.4
16880,5.0
16881,11.9
16882,8.0
16883,26.4
16885,41.6
16887,11.1
16888,11.6
16899,18.5
16900,22.7
16901,11.2
16904,18.7
16910,26.1
16911,10.8
16912,20.5
16913,15.2
16915,16.4
16919,14.4
16921,9.9
16923,21.0
16924,27.2
16933,4.6
16934,18.9
16935,-20.1
16936,27.3
16938,12.6
16939,25.2
16941,26.2
16944,13.7
16945,11.1
16947,6.0
16948,21.7
16949,21.0
16951,5.9
16952,18.4
16955,15.3
16957,9.4
16958,8.6
16959,18.3
16961,0.5
16964,11.9
16965,11.0
16966,22.2
16968,22.5
16970,13.9
16972,25.2
16973,-9.8
16974,18.3
16977,14.0
16981,18.0
16986,41.6
16988,8.9
16990,21.1
16991,25.8
16992,4.2
16993,26.9
16994,11.8
16997,15.6
16998,18.5
17002,7.6
17005,23.9
17007,12.9
17010,10.8
17011,7.8
17015,3.9
17016,22.0
17017,11.2
17019,14.9
17022,26.2
17024,19.0
17029,7.3
17036,-12.4
17037,10.0
17039,6.2
17043,10.0
17046,16.5
17047,21.6
17049,21.0
17050,10.6
17052,19.6
17054,7.2
17055,12.5
17056,16.8
17061,0.5
17068,17.2
17071,16.0
17073,-9.8
17074,9.4
17076,19.4
17077,4.2
17078,5.1
17080,18.8
17084,15.7
17085,39.1
17086,3.8
17090,3.2
17091,8.1
17092,25.7
17095,16.8
17096,4.8
17098,18.5
17099,24.4
17100,24.8
17106,14.0
17107,9.1
17111,8.2
17112,22.9
17115,16.2
17117,13.0
17118,21.7
17119,5.6
17121,11.6
17122,3.0
17123,9.5
17124,13.4
17125,3.4
17126,9.1
17129,6.9
17133,-12.4
17134,12.8
17135,18.4
17136,13.9
17137,24.4
17138,26.3
17139,23.6
17143,13.1
17146,31.3
17150,20.5
17153,15.4
17156,4.2
17159,13.3
17160,11.3
17164,8.2
17165,26.1
17168,24.3
17169,10.5
17170,17.3
17171,5.7
17172,-2.1
17173,20.3
17174,20.8
17175,23.5
17176,11.7
17178,14.1
17179,18.7
17181,20.1
17183,23.1
17184,41.6
17185,12.1
17187,4.1
17189,27.5
17191,25.0
17194,26.7
17195,27.2
17197,18.5
17200,21.1
17201,24.2
17203,19.2
17208,19.4
17209,13.3
17213,16.9
17220,24.5
17221,10.8
17225,19.8
17226,14.3
17228,24.9
17232,16.7
17233,5.2
17234,-22.7
17239,7.0
17244,7.6
17245,9.5
17246,26.6
17247,12.3
17248,23.6
17249,14.9
17250,15.8
17251,10.2
17256,12.9
17257,14.1
17259,18.2
17260,3.0
17262,23.8
17263,23.8
17266,23.8
17270,5.1
17271,-2.1
17272,22.5
17274,17.1
17275,17.2
17278,5.5
17282,15.6
17283,14.4
17284,41.6
17285,12.4
17287,4.7
17289,17.3
17292,20.2
17296,18.5
17298,10.5
17300,22.8
17301,18.1
17303,7.1
17305,8.2
17306,5.5
17308,25.9
17309,10.8
17310,18.5
17315,7.4
17318,22.0
17319,22.0
17320,15.9
17321,18.5
17323,19.1
17325,19.6
17326,14.9
17329,14.0
17333,13.9
17334,-25.3
17346,12.5
17347,21.0
17348,11.0
17350,25.4
17351,15.0
17353,12.0
17357,10.6
17359,0.5
17360,18.3
17361,19.2
17362,20.7
17367,19.0
17369,10.6
17372,-4.7
17373,27.6
17379,13.8
17381,14.8
17383,15.3
17384,41.6
17386,11.4
17388,13.3
17390,17.1
17391,26.8
17392,21.1
17395,23.8
17396,21.0
17398,9.6
17399,18.3
17401,25.4
17402,15.2
17406,26.7
17407,20.3
17409,10.8
17410,10.5
17412,5.8
17414,8.3
17416,17.8
17417,14.7
17418,27.9
17420,19.6
17421,23.6
17422,5.7
17423,26.7
17426,19.1
17429,14.6
17433,24.5
17434,-15.0
17437,22.2
17439,18.4
17440,9.6
17441,19.6
17442,23.5
17443,19.5
17446,20.4
17447,21.0
17448,15.1
17451,7.3
17453,26.6
17456,14.7
17458,15.5
17460,-2.1
17462,13.0
17467,5.6
17468,11.6
17472,-15.0
17476,19.2
17477,21.3
17478,15.2
17482,5.4
17484,16.3
17485,28.8
17486,24.9
17489,12.4
17490,8.3
17494,19.6
17495,6.8
17497,24.5
17499,10.8
17502,16.4
17503,27.2
17505,11.7
17506,3.4
17509,22.4
17511,-7.2
17513,21.7
17515,22.6
17521,23.9
17522,15.1
17523,41.6
17524,17.9
17525,23.8
17528,12.1
17529,15.5
17533,19.3
17535,13.1
17536,21.0
17538,6.9
17542,25.4
17543,16.3
17544,25.7
17546,18.7
17548,13.3
17552,5.9
17557,7.8
17558,7.2
17559,8.3
17560,21.0
17561,21.4
17565,22.7
17566,19.0
17568,14.1
17569,10.5
17570,14.6
17571,9.3
17573,-17.5
17574,23.2
17575,27.9
17579,14.1
17582,20.9
17585,9.4
17587,21.0
17588,27.5
17590,19.7
17595,15.2
17596,23.2
17598,23.5
17599,0.5
17600,9.1
17602,10.3
17604,16.9
17605,20.8
17606,17.3
17610,-7.2
17611,27.9
17614,16.0
17620,8.4
17621,26.5
17622,12.3
17623,41.6
17624,22.2
17625,3.9
17628,14.5
17629,7.8
17630,23.6
17631,5.5
17634,4.9
17635,11.7
17636,18.5
17642,19.9
17643,19.5
17644,4.0
17645,5.6
17647,21.7
17648,10.8
17651,26.5
17653,14.5
17657,22.8
17658,9.7
17660,26.2
17662,3.8
17663,16.6
17664,20.5
17665,7.5
17666,16.2
17667,10.8
17672,5.4
17673,-9.8
17675,25.6
17678,6.9
17682,21.7
17684,12.1
17685,26.2
17686,23.3
17687,8.9
17692,16.7
17694,22.8
17696,17.6
17698,5.6
17702,14.1
17706,19.9
17709,11.8
17710,-2.1
17714,7.9
17717,13.7
17719,28.0
17721,12.2
17722,44.2
17724,19.8
17726,11.9
17731,16.2
17732,13.2
17733,15.2
17734,18.5
17735,14.4
17736,6.3
17739,16.5
17741,9.8
17743,5.1
17746,15.9
17747,8.3
17750,23.0
17751,23.5
17754,21.8
17757,18.3
17759,0.5
17760,4.9
17761,7.7
17763,18.1
17764,25.8
17765,10.7
17766,15.3
17771,-12.4
17775,10.7
17777,18.4
17780,13.8
17781,24.3
17782,26.1
17784,33.9
17786,10.8
17787,20.8
17791,21.2
17796,13.4
17797,10.8
17798,22.2
17801,25.1
17804,26.8
17806,9.7
17807,27.1
17808,7.9
17809,-2.1
17810,22.2
17811,27.3
17812,19.7
17813,19.6
17815,25.9
17816,19.8
17817,8.7
17821,41.6
17823,12.1
17829,18.7
17831,24.1
17832,17.0
17833,6.8
17835,18.5
17836,23.6
17837,15.8
17838,27.4
17839,11.6
17841,26.7
17842,19.7
17843,8.9
17844,21.2
17845,23.2
17846,26.6
17847,15.9
17848,20.7
17849,23.0
17850,6.5
17851,15.7
17857,22.1
17858,12.8
17859,10.8
17860,26.5
17861,5.6
17862,23.3
17864,19.8
17865,26.9
17866,22.9
17867,7.2
17870,9.6
17871,-22.7
17872,19.4
17874,11.1
17875,7.0
17878,12.4
17884,26.1
17885,23.6
17892,17.6
17897,22.7
17898,3.0
17899,16.7
17902,23.2
17903,6.7
17907,11.3
17909,-4.7
17912,18.5
17913,10.7
17914,27.4
17917,22.0
17918,14.3
17919,9.6
17921,18.7
17922,41.6
17924,12.4
17925,12.3
17928,8.4
17929,12.4
17930,23.5
17931,10.0
17932,26.1
17933,5.7
17934,18.5
17935,5.4
17936,22.3
17937,16.3
17938,24.3
17941,25.6
17942,11.6
17944,8.3
17945,26.0
17946,10.8
17950,7.7
17951,27.2
17953,20.2
17955,6.6
17957,8.2
17958,18.5
17962,23.6
17963,19.1
17964,5.5
17969,17.8
17971,14.1
17972,-22.7
17974,26.8
17975,13.7
17978,10.5
17980,5.5
17981,22.5
17982,10.0
17984,15.4
17985,23.6
17990,5.0
17992,12.6
17997,0.5
17999,6.4
18003,3.7
18004,4.9
18009,-7.2
18014,19.5
18015,9.1
18018,9.1
18020,9.7
18021,39.1
18022,4.5
18023,5.4
18024,7.6
18025,7.2
18026,8.2
18030,12.7
18032,7.9
18033,15.7
18034,18.5
18035,25.0
18036,12.9
18037,10.3
18046,8.2
18047,25.7
18048,4.2
18049,17.3
18052,27.8
18054,19.5
18056,15.1
18058,-2.1
18060,5.7
18064,16.6
18067,22.4
18070,-17.5
18071,12.4
18072,21.5
18073,12.3
18074,15.1
18077,19.4
18078,20.2
18079,4.6
18081,13.4
18082,27.0
18083,26.2
18085,15.5
18086,4.0
18089,16.6
18090,24.1
18093,12.9
18096,4.2
18097,8.2
18100,10.5
18101,15.5
18105,23.3
18106,8.6
18107,8.7
18108,-2.1
18112,23.7
18113,7.0
18115,24.1
18116,19.4
18118,22.9
18120,41.6
18123,9.4
18126,13.7
18128,10.5
18130,17.7
18132,15.9
18133,5.1
18136,3.9
18137,20.9
18140,20.1
18141,8.8
18143,20.0
18144,12.7
18145,15.9
18148,25.8
18150,22.9
18152,17.2
18153,27.1
18156,21.0
18157,-4.7
18163,21.8
18164,19.1
18166,8.7
18170,-20.1
18172,6.3
18173,23.4
18176,28.0
18179,20.6
18180,17.9
18184,26.2
18186,20.1
18187,6.1
18189,4.7
18194,24.6
18195,17.0
18196,3.0
18202,5.5
18203,12.9
18204,16.6
18205,17.5
18207,-2.1
18213,14.6
18218,3.3
18220,41.6
18222,9.9
18224,5.9
18226,11.3
18227,9.2
18230,18.0
18232,18.9
18233,15.9
18236,12.9
18239,6.5
18240,24.9
18241,26.8
18242,13.0
18245,15.9
18246,3.1
18248,7.4
18250,13.6
18253,21.4
18255,21.9
18256,16.8
18257,8.2
18258,15.8
18259,12.2
18269,-15.0
18272,9.9
18274,3.3
18278,24.6
18281,26.2
18282,31.3
18284,8.8
18286,22.3
18287,12.2
18289,8.8
18291,15.6
18292,10.5
18294,13.3
18300,20.1
18302,18.5
18303,5.1
18306,13.2
18308,-4.7
18309,14.2
18310,25.1
18312,11.2
18315,5.1
18316,10.8
18317,26.0
18320,44.2
18324,12.4
18328,8.4
18329,20.3
18330,11.6
18331,3.6
18332,18.5
18340,7.1
18341,5.0
18343,4.2
18344,13.3
18347,23.2
18348,5.2
18355,25.8
18357,13.3
18358,9.1
18359,5.2
18361,11.3
18362,15.8
18364,18.9
18365,20.7
18367,17.2
18370,-22.7
18379,3.3
18380,8.5
18382,23.2
18383,21.0
18393,24.6
18394,14.3
18395,15.3
18396,0.5
18398,15.3
18404,24.4
18406,20.5
18407,-4.7
18410,7.8
18416,11.6
18417,15.5
18419,39.1
18423,25.7
18424,25.3
18430,10.6
18431,6.2
18433,18.5
18440,25.8
18445,10.8
18447,20.5
18449,3.1
18453,5.3
18454,12.8
18455,16.5
18457,18.5
18458,8.8
18459,18.9
18465,16.9
18469,-20.1
18478,11.0
18479,9.0
18482,12.6
18483,21.0
18484,9.5
18485,21.9
18489,14.3
18491,23.8
18492,14.4
18493,24.6
18496,0.5
18497,13.9
18499,4.5
18500,12.7
18501,8.6
18505,11.1
18507,-7.2
18509,26.9
18511,24.1
18512,26.3
18518,23.0
18520,44.2
18521,14.4
18522,18.9
18524,24.1
18525,24.1
18530,19.0
18532,18.5
18533,14.8
18534,8.9
18543,8.7
18544,10.8
18551,7.4
18552,17.5
18554,13.5
18556,23.6
18558,23.7
18564,21.1
18566,11.3
18570,-9.8
18576,21.9
18578,15.5
18580,27.5
18582,26.2
18583,27.9
18590,11.5
18592,22.5
18594,5.6
18595,10.6
18597,10.0
18599,16.3
18601,4.1
18602,10.6
18606,0.5
18607,24.8
18609,14.0
18612,23.0
18615,24.1
18617,36.5
18618,16.5
18621,27.8
18622,12.7
18623,24.4
18624,24.1
18625,7.1
18626,4.3
18630,3.0
18631,17.9
18632,24.2
18634,25.3
18638,12.0
18641,31.3
18642,17.5
18647,25.2
18648,23.1
18650,13.3
18654,8.2
18655,5.9
18659,5.7
18660,15.1
18664,27.8
18665,3.0
18668,14.8
18669,10.7
18672,14.2
18675,10.2
18676,26.2
18677,21.6
18678,13.5
18680,14.5
18682,15.8
18684,22.8
18688,6.8
18689,-9.8
18692,12.7
18696,17.4
18698,10.4
18699,11.4
18700,26.6
18701,20.0
18702,26.2
18703,22.0
18704,17.5
18706,18.2
18708,9.4
18711,20.1
18714,3.0
18717,16.2
18718,11.7
18719,13.4
18721,24.1
18722,12.5
18723,17.8
18725,0.5
18727,17.9
18729,26.1
18730,26.8
18733,20.9
18734,13.2
18735,8.5
18737,33.9
18738,6.3
18740,13.2
18741,16.7
18743,3.8
18745,22.2
18749,5.6
18755,14.1
18759,14.0
18760,28.8
18762,14.4
18763,17.9
18764,14.7
18766,21.9
18767,8.1
18770,17.1
18774,8.2
18775,23.6
18776,6.6
18777,8.6
18778,14.7
18783,7.6
18785,0.5
18788,21.6
18791,22.0
18796,26.2
18801,14.1
18803,19.8
18804,5.1
18806,26.7
18808,-7.2
18810,22.0
18816,27.7
18819,6.1
18821,26.2
18823,16.8
18824,13.5
18825,7.7
18827,22.8
18829,13.2
18830,27.2
18834,5.6
18836,19.3
18839,7.2
18840,8.0
18842,8.8
18844,20.1
18845,-2.1
18847,22.4
18848,4.3
18849,6.6
18850,18.4
18852,26.2
18853,9.3
18856,12.5
18857,41.6
18858,22.7
18859,23.4
18861,25.2
18862,23.9
18863,26.8
18866,12.4
18867,27.6
18868,9.5
18870,18.5
18871,8.7
18875,25.9
18878,13.0
18879,11.6
18881,6.3
18882,13.3
18884,11.5
18885,16.4
18887,12.8
18889,22.5
18890,18.0
18891,5.3
18892,15.6
18895,8.2
18900,9.1
18901,20.9
18902,4.2
18907,-15.0
18912,22.6
18914,24.5
18916,9.6
18918,16.3
18920,31.3
18921,23.7
18922,11.4
18926,16.3
18927,22.5
18932,10.8
18933,11.5
18937,5.7
18941,27.0
18942,18.8
18943,22.1
18945,-4.7
18948,16.0
18951,3.2
18953,7.2
18954,11.8
18957,41.6
18958,10.8
18959,6.6
18960,23.1
18961,11.1
18962,27.4
18966,13.3
18967,27.8
18969,27.3
18970,18.5
18971,12.1
18973,23.0
18976,15.0
18979,24.5
18980,26.8
18981,16.8
18982,13.3
18983,18.9
18984,14.2
18986,12.9
18987,20.0
18992,4.1
18995,13.3
18997,21.1
18999,26.8
19004,7.2
19005,9.2
19006,4.9
19007,-25.3
19009,15.0
19010,25.5
19016,5.3
19017,27.2
19019,25.6
19020,23.6
19024,17.0
19025,27.1
19027,26.1
19031,26.8
19033,22.4
19034,0.5
19035,19.5
19037,16.5
19038,14.8
19041,16.1
19042,15.1
19045,-7.2
19046,26.0
19049,16.0
19050,8.1
19051,22.9
19054,4.9
19057,39.1
19059,23.0
19060,23.1
19061,17.2
19062,22.9
19063,7.3
19064,23.4
19068,14.8
19069,18.5
19071,19.7
19073,12.8
19075,10.5
19076,13.7
19077,8.9
19079,22.0
19081,16.5
19082,13.3
19086,15.7
19088,14.8
19089,3.5
19090,5.0
19094,4.0
19095,21.0
19096,16.2
19104,10.8
19107,-20.1
19108,20.1
19112,6.8
19114,3.5
19118,20.0
19120,21.3
19121,21.0
19122,19.4
19124,3.1
19127,21.1
19128,15.2
19130,10.4
19131,26.7
19133,0.5
19134,4.7
19135,9.9
19138,15.5
19139,6.4
19140,24.6
19142,4.7
19144,-7.2
19146,24.7
19147,9.7
19151,13.4
19152,24.9
19153,11.0
19155,21.5
19156,41.6
19157,22.5
19160,11.9
19163,13.1
19164,20.0
19167,14.2
19170,21.0
19171,9.9
19172,23.6
19173,8.7
19174,21.0
19175,4.4
19179,16.4
19180,22.2
19181,10.3
19182,13.3
19183,16.6
19186,26.5
19189,7.7
19191,3.3
19194,26.2
19195,27.2
19196,15.7
19200,15.3
19202,25.6
19204,20.2
19205,8.4
19207,-12.4
19208,16.4
19211,19.1
19213,13.7
19214,22.9
19216,24.6
19220,21.0
19222,11.4
19229,27.4
19233,-2.1
19234,6.8
19238,6.4
19239,15.1
19240,9.7
19241,19.6
19242,11.6
19243,20.6
19246,-15.0
19247,18.5
19248,14.5
19251,5.4
19253,4.1
19254,5.7
19255,13.8
19256,18.2
19258,24.2
19259,31.3
19260,15.1
19263,6.3
19264,18.4
19266,11.8
19269,17.3
19271,8.2
19272,4.2
19273,24.2
19275,6.9
19277,21.1
19280,11.8
19282,0.5
19284,9.0
19286,20.6
19291,27.2
19293,14.2
19295,28.8
19296,3.1
19299,9.7
19301,19.2
19302,7.9
19303,14.9
19307,-7.2
19308,11.5
19311,7.0
19313,25.7
19315,11.6
19317,27.1
19318,18.8
19319,26.2
19320,12.3
19324,11.1
19326,6.1
19329,13.7
19332,5.6
19334,8.3
19336,18.1
19339,14.1
19341,10.1
19343,-4.7
19345,7.1
19346,3.5
19350,22.7
19351,11.4
19354,26.4
19355,41.6
19356,10.6
19357,24.5
19358,27.9
19360,27.1
19361,25.9
19365,10.5
19366,23.3
19367,23.7
19368,18.5
19370,17.6
19371,7.0
19374,6.3
19381,13.3
19382,18.0
19383,15.9
19385,16.6
19390,20.3
19392,7.4
19393,8.2
19397,19.3
19398,26.8
19404,-15.0
19405,27.2
19409,25.9
19414,21.2
19418,31.3
19419,8.9
19423,26.1
19425,13.9
19426,22.7
19428,15.0
19431,10.8
19434,25.0
19436,9.4
19438,7.8
19439,10.6
19440,18.7
19441,11.6
19443,-4.7
19445,10.6
19450,25.4
19451,16.0
19452,7.1
19454,27.4
19456,41.6
19459,12.4
19460,14.9
19465,11.4
19466,13.2
19467,20.8
19468,18.5
19470,10.7
19476,25.4
19480,13.3
19481,24.7
19484,19.2
19490,23.9
19491,18.3
19492,15.9
19494,17.3
19497,22.1
19499,8.7
19500,26.2
19501,19.2
19502,19.0
19506,-22.7
19511,6.1
19513,14.8
19517,24.6
19519,23.6
19520,27.0
19521,18.7
19527,21.0
19528,17.2
19530,3.2
19531,3.0
19533,4.6
19536,20.5
19541,15.1
19543,-7.2
19546,14.9
19548,6.2
19550,25.0
19551,13.1
19552,20.4
19554,27.2
19555,44.2
19556,23.8
19558,6.1
19560,9.5
19561,6.8
19563,3.8
19568,18.5
19571,13.3
19573,18.0
19575,4.3
19576,22.0
19577,20.9
19580,13.3
19585,9.7
19587,23.8
19589,27.4
19590,25.8
19591,20.0
19592,6.7
19593,23.6
19595,9.0
19597,26.6
19598,5.8
19601,14.5
19605,-17.5
19606,23.5
19607,12.9
19608,25.8
19610,9.5
19612,27.0
19614,11.2
19615,17.3
19617,22.7
19618,21.0
19620,25.0
19621,18.9
19623,16.0
19626,6.1
19628,18.3
19629,8.6
19630,27.5
19631,18.3
19632,0.5
19635,27.6
19636,9.8
19638,23.0
19639,7.1
19640,17.4
19643,-9.8
19644,18.9
19645,23.9
19648,27.1
19649,19.2
19650,11.1
19655,39.1
19657,13.4
19659,13.4
19661,20.3
19663,22.7
19665,22.9
19667,18.5
19669,5.1
19670,11.8
19674,24.6
19676,3.5
19678,7.2
19679,13.8
19680,8.2
19681,25.8
19682,21.5
19685,14.6
19686,22.5
19687,13.1
19689,3.3
19691,-4.7
19695,21.0
19696,6.6
19697,17.1
19698,17.4
19699,20.6
19701,18.9
19702,13.8
19704,-20.1
19707,24.1
19710,13.2
19711,24.6
19714,19.1
19715,10.5
19716,14.3
19718,26.2
19719,15.2
19720,24.1
19722,20.6
19723,11.0
19725,19.5
19726,4.3
19728,26.0
19730,5.6
19731,7.4
19733,9.2
19736,13.0
19738,15.3
19739,6.6
19740,20.6
19741,-4.7
19744,4.5
19745,13.8
19746,26.8
19747,23.3
19748,9.7
19749,17.3
19750,18.5
19751,10.6
19753,41.6
19755,8.8
19757,17.4
19758,17.7
19760,9.9
19761,24.3
19763,21.5
19767,15.9
19772,19.8
19776,24.6
19779,15.9
19780,22.8
19781,20.2
19784,7.4
19785,14.7
19786,20.3
19791,3.0
19792,11.4
19794,8.0
19795,23.7
19796,23.6
19797,5.5
19799,8.5
19801,3.5
19803,-12.4
19804,15.0
19805,9.9
19807,9.2
19808,25.5
19811,20.0
19814,4.3
19816,31.3
19817,27.6
19818,13.6
19819,5.5
19821,7.5
19823,10.3
19824,14.9
19825,9.3
19827,18.8
19829,13.3
19830,16.5
19834,7.8
19835,23.5
19837,6.9
19838,9.0
19842,-2.1
19843,11.7
19847,11.1
19849,4.8
19850,4.2
19851,9.2
19853,6.3
19854,41.6
19858,5.4
19865,3.7
19866,18.5
19867,20.7
19870,12.1
19872,11.9
19873,16.4
19875,15.5
19877,23.1
19878,13.3
19880,26.9
19881,9.7
19882,27.9
19883,4.3
19885,6.8
19887,25.4
19888,23.4
19891,10.8
19894,19.9
19904,-20.1
19908,26.7
19909,12.8
19912,4.8
19914,17.8
19915,6.9
19917,23.6
19920,23.3
19921,24.4
19922,6.3
19923,8.8
19924,23.0
19926,3.9
19928,15.2
19929,15.9
19930,0.5
19932,17.7
19935,24.1
19936,23.6
19937,21.3
19939,25.1
19940,25.6
19941,-7.2
19943,11.7
19945,21.6
19947,21.2
19948,10.8
19949,27.0
19952,26.3
19953,44.2
19954,27.4
19956,18.4
19958,24.9
19961,5.8
19963,20.3
19965,24.5
19966,21.0
19967,10.9
19968,15.4
19969,6.0
19970,26.3
19971,13.8
19972,8.8
19973,27.0
19974,18.8
19976,6.3
19979,10.8
19981,9.9
19987,9.2
19991,18.5
19992,24.0
19994,13.8
19995,21.6
19996,6.4
19997,24.3
19999,19.8
20000,24.8
20002,19.4
20003,-25.3
20005,25.3
20009,20.9
20010,8.9
20011,6.3
20012,24.9
20014,3.0
20015,13.9
20017,21.0
20020,4.8
20022,4.0
20024,6.8
20026,10.9
20030,0.5
20033,17.1
20034,12.6
20035,23.2
20036,19.7
20040,13.5
20041,-4.7
20042,14.1
20045,24.9
20046,10.7
20047,20.1
20049,20.3
20051,13.6
20053,25.8
20054,39.1
20056,15.6
20058,21.6
20059,17.8
20061,5.7
20063,5.0
20066,21.0
20072,10.1
20073,21.9
20078,10.8
20079,21.3
20082,24.2
20084,21.3
20085,18.0
20087,15.1
20088,15.8
20090,26.2
20092,15.5
20093,5.5
20095,17.8
20097,4.0
20098,23.0
20099,25.4
20100,19.4
20103,12.6
20104,-15.0
20107,9.1
20111,16.1
20112,13.2
20113,15.7
20116,20.7
20117,21.0
20118,21.3
20119,5.2
20121,23.4
20122,11.8
20123,13.5
20127,17.9
20129,0.5
20132,27.8
20133,18.7
20134,19.5
20140,12.5
20141,-7.2
20143,27.8
20145,22.0
20151,16.4
20153,39.1
20155,7.0
20161,15.0
20165,16.1
20166,18.5
20168,3.3
20170,26.7
20173,20.9
20174,6.9
20177,3.0
20178,8.2
20181,19.0
20182,16.8
20185,19.8
20189,26.6
20190,-2.1
20191,10.3
20196,6.9
20199,7.8
20200,8.3
20201,13.5
20202,-17.5
20203,3.4
20205,15.9
20206,21.2
20209,20.8
20215,26.2
20216,3.7
20220,16.3
20224,4.2
20227,13.0
20229,5.6
20230,14.1
20231,25.1
20232,22.0
20235,17.6
20236,27.7
20237,12.3
20238,19.0
20240,-2.1
20243,11.7
20245,10.1
20249,16.7
20250,13.3
20252,41.6
20254,25.3
20256,9.5
20259,15.0
20262,17.1
20264,15.9
20265,26.6
20267,12.5
20268,15.9
20271,13.4
20273,12.3
20274,24.7
20275,11.4
20276,15.3
20277,15.9
20280,5.5
20281,13.6
20282,11.9
20284,4.1
20285,19.7
20287,22.9
20288,23.5
20289,8.2
20291,8.2
20292,10.6
20294,26.2
20296,5.2
20297,4.2
20301,-12.4
20302,18.6
20304,14.0
20305,17.7
20307,6.7
20308,21.0
20309,6.4
20312,16.2
20315,28.8
20316,27.0
20318,13.7
20319,22.0
20320,8.3
20322,22.3
20326,20.6
20327,13.3
20328,15.1
20330,9.0
20331,19.9
20332,5.5
20334,15.4
20337,16.9
20339,-4.7
20340,5.7
20341,22.6
20342,24.0
20343,5.7
20344,10.1
20346,15.0
20350,6.8
20352,41.6
20353,24.3
20354,6.6
20360,19.6
20362,6.5
20365,18.5
20366,12.4
20367,23.5
20369,11.4
20371,3.6
20372,4.4
20375,11.6
20377,13.3
20379,17.7
20383,3.8
20385,27.8
20386,21.0
20388,19.6
20389,13.3
20390,17.7
20391,16.8
20393,8.2
20394,24.2
20397,13.0
20399,14.5
20402,-22.7
20403,16.0
20405,15.0
20406,10.7
20407,5.4
20408,8.4
20409,8.1
20413,22.8
20414,10.1
20415,21.0
20416,16.2
20417,22.3
20423,4.5
20424,3.7
20425,5.0
20427,8.6
20428,3.0
20429,6.9
20431,10.7
20432,26.4
20433,27.6
20434,15.3
20435,27.3
20439,9.9
20440,-4.7
20441,13.9
20442,17.2
20445,27.0
20447,13.3
20448,27.8
20452,41.6
20453,13.3
20455,12.7
20457,15.8
20459,15.4
20462,7.9
20463,5.5
20464,18.5
20466,18.1
20471,12.4
20472,6.6
20476,10.8
20477,6.9
20482,22.4
20483,18.8
20484,4.4
20486,7.1
20489,21.0
20490,9.2
20491,6.2
20495,25.4
20496,10.2
20501,12.3
20502,-20.1
20508,21.6
20509,14.3
20515,21.0
20516,24.2
20521,26.8
20525,7.6
20526,5.0
20528,0.5
20532,12.2
20533,17.1
20534,4.1
20535,9.6
20536,26.1
20538,24.3
20539,-7.2
20542,7.2
20544,24.6
20545,25.1
20546,3.3
20548,4.7
20550,13.1
20551,41.6
20552,4.1
20553,16.6
20555,5.9
20556,7.5
20559,17.5
20560,15.2
20561,16.8
20562,22.3
20563,15.1
20564,18.5
20565,18.4
20567,17.6
20569,12.5
20573,7.8
20575,5.1
20577,8.2
20578,6.5
20579,12.8
20585,11.1
20586,16.8
20587,23.3
20588,-2.1
20590,24.4
20592,10.6
20593,6.9
20594,6.6
20598,23.0
20599,9.5
20600,-17.5
20603,16.9
20605,9.3
20612,16.6
20614,26.2
20617,12.8
20618,21.1
20620,9.1
20621,14.5
20624,14.6
20627,5.6
20629,10.5
20630,4.0
20632,26.6
20633,23.9
20634,24.8
20637,25.8
20638,-2.1
20641,3.8
20642,6.8
20643,20.0
20645,18.8
20646,23.3
20648,26.0
20651,41.6
20652,22.7
20654,18.1
20659,9.2
20661,17.3
20662,3.2
20663,15.9
20664,5.1
20668,9.6
20670,26.3
20671,22.7
20673,24.8
20674,17.2
20675,15.9
20677,21.6
20678,23.8
20686,23.4
20687,3.0
20688,23.1
20689,18.4
20690,21.3
20691,24.2
20692,12.5
20693,19.4
20698,18.0
20699,25.2
20700,-12.4
20701,21.2
20702,13.2
20704,16.8
20711,22.4
20713,31.3
20714,10.2
20716,27.2
20720,8.5
20722,5.0
20723,5.3
20725,10.8
20726,21.9
20727,15.9
20729,5.8
20730,24.4
20733,24.4
20734,18.8
20735,10.8
20737,26.7
20738,-2.1
20739,11.5
20740,5.1
20741,20.6
20743,6.9
20747,18.9
20748,14.1
20749,17.7
20750,41.6
20752,3.1
20757,10.8
20760,4.0
20761,12.0
20762,3.0
20763,18.5
20765,21.6
20767,22.8
20768,23.2
20770,25.6
20771,14.3
20774,10.4
20775,13.3
20776,23.4
20777,14.5
20779,8.3
20780,3.5
20783,5.6
20788,10.8
20789,23.2
20791,11.8
20795,25.8
20799,9.8
20800,-22.7
20801,14.8
20802,26.7
20807,6.8
20812,11.2
20813,23.6
20815,27.4
20818,18.0
20819,22.8
20821,14.4
20823,9.7
20826,8.6
20827,3.0
20828,24.4
20829,26.4
20830,9.6
20833,18.5
20834,17.5
20836,26.0
20838,-7.2
20841,16.1
20842,3.1
20843,26.6
20844,9.2
20845,5.7
20846,8.7
20847,21.7
20848,28.0
20850,41.6
20853,10.2
20854,7.6
20856,18.8
20857,27.1
20859,4.8
20861,23.8
20862,18.5
20863,3.4
20864,7.2
20865,22.0
20870,14.3
20873,8.8
20874,4.6
20875,13.3
20876,19.1
20877,4.1
20878,15.2
20880,26.7
20881,9.0
20883,20.1
20884,3.9
20887,15.9
20888,3.7
20889,16.3
20890,13.2
20891,11.3
20893,13.2
20894,5.4
20899,11.1
20900,-22.7
20902,12.9
20905,12.7
20906,10.2
20911,4.5
20914,21.0
20915,14.0
20916,26.8
20918,13.0
20919,18.0
20921,24.9
20926,3.0
20928,12.5
20935,18.9
20937,-4.7
20938,17.6
20939,16.0
20946,9.8
20947,9.3
20948,4.7
20950,41.6
20952,3.3
20953,19.2
20954,13.1
20958,5.7
20960,27.7
20962,26.0
20963,18.5
20964,14.4
20972,14.7
20974,21.8
20975,10.8
20977,14.1
20978,26.7
20979,22.1
20986,8.5
20987,21.0
20989,15.0
20990,17.4
20994,10.7
20997,7.9
20998,8.0
21000,-15.0
21003,27.8
21004,3.9
21005,16.2
21006,5.8
21009,25.1
21011,14.1
21012,17.3
21013,21.0
21017,22.0
21022,23.8
21024,27.8
21026,0.5
21027,10.0
21028,3.6
21029,26.0
21030,9.7
21032,10.3
21033,26.6
21034,23.3
21035,11.4
21038,-7.2
21039,17.8
21040,14.2
21041,8.7
21044,8.8
21046,19.5
21050,41.6
21055,10.6
21056,17.1
21058,13.2
21059,20.5
21061,11.6
21062,18.5
21063,26.5
21065,8.7
21068,27.6
21070,15.0
21071,20.0
21072,23.5
21074,10.8
21075,21.2
21076,12.0
21079,25.7
21082,24.9
21083,21.9
21084,10.8
21085,20.4
21087,26.2
21088,17.6
21089,7.5
21090,18.7
21091,27.5
21094,8.4
21100,-9.8
21101,12.6
21102,5.8
21108,21.5
21110,14.9
21111,23.8
21112,26.2
21116,8.9
21121,27.9
21122,8.4
21123,17.2
21125,5.6
21128,10.6
21131,13.7
21134,25.8
21135,9.8
21136,-2.1
21137,15.4
21138,21.1
21139,26.2
21141,7.9
21143,21.7
21144,17.0
21145,11.7
21146,16.2
21148,41.6
21151,24.4
21153,27.2
21154,9.1
21156,18.5
21159,24.6
21161,18.5
21164,19.5
21168,12.7
21169,14.3
21172,5.3
21173,20.5
21174,15.9
21176,27.8
21177,27.0
21181,9.8
21182,8.0
21185,6.1
21186,5.6
21187,22.1
21189,25.9
21190,12.8
21191,26.4
21193,13.8
21194,12.1
21197,-12.4
21199,17.0
21200,5.5
21202,24.8
21205,23.6
21211,31.3
21216,14.6
21221,6.1
21223,10.8
21225,25.0
21229,6.0
21231,6.4
21232,3.6
21236,-2.1
21240,20.4
21243,17.7
21245,18.3
21249,41.6
21250,26.4
21253,12.3
21256,9.6
21257,10.6
21260,8.2
21261,18.5
21265,17.8
21266,20.3
21267,14.2
21269,5.5
21270,10.4
21272,27.4
21273,13.3
21278,19.1
21280,12.0
21285,13.3
21288,3.1
21290,24.8
21299,-22.7
21300,18.0
21308,8.9
21309,19.5
21310,14.9
21312,23.6
21314,24.0
21315,5.5
21316,16.5
21317,12.9
21318,26.8
21319,17.6
21323,6.8
21324,3.0
21327,11.1
21329,18.1
21330,24.3
21331,4.4
21333,3.6
21335,26.1
21336,-4.7
21348,39.1
21349,12.7
21351,4.3
21354,4.2
21355,5.0
21358,27.0
21360,23.5
21361,21.0
21366,19.7
21369,21.7
21370,5.1
21372,11.2
21373,10.8
21380,4.8
21381,4.8
21382,17.6
21384,7.8
21386,18.5
21388,9.4
21390,9.3
21392,22.3
21395,18.6
21396,15.9
21397,6.5
21398,-22.7
21400,5.2
21403,8.8
21407,4.2
21410,21.5
21411,23.6
21413,15.8
21415,19.4
21416,7.8
21417,24.3
21418,19.7
21421,12.4
21425,-2.1
21433,17.3
21434,4.3
21435,20.0
21436,26.8
21437,-15.0
21439,25.8
21440,23.5
21442,24.3
21444,15.0
21445,7.9
21447,26.3
21448,4.8
21450,31.3
21452,9.6
21455,9.6
21456,6.1
21460,19.9
21461,26.6
21463,10.8
21464,14.7
21465,18.7
21467,18.7
21468,13.3
21470,25.5
21471,12.1
21472,10.9
21473,13.5
21475,-4.7
21478,18.1
21480,6.2
21481,4.8
21484,27.8
21486,16.7
21487,41.6
21489,25.0
21491,3.5
21492,8.3
21493,5.0
21495,21.2
21496,12.9
21497,10.2
21498,15.0
21500,18.5
21502,4.6
21503,18.7
21506,27.4
21510,8.6
21511,3.7
21512,7.7
21513,13.3
21514,9.5
21515,5.9
21516,18.7
21518,18.2
21519,13.6
21520,7.7
21521,25.8
21522,18.2
21523,4.7
21524,24.2
21525,13.3
21527,13.9
21528,3.4
21530,9.1
21532,8.6
21533,17.4
21534,4.7
21537,-25.3
21540,17.3
21542,8.7
21544,7.5
21548,11.6
21551,21.0
21552,22.7
21562,16.3
21563,25.1
21564,3.0
21567,18.9
21568,13.1
21570,14.4
21574,5.5
21575,-7.2
21576,12.5
21578,18.1
21579,14.5
21580,9.5
21581,24.1
21584,17.2
21585,24.1
21587,41.6
21590,7.1
21592,7.7
21595,7.6
21596,18.4
21599,22.0
21600,18.5
21603,9.5
21604,20.1
21608,10.0
21610,27.0
21611,23.0
21612,10.8
21615,21.7
21616,13.7
21619,20.6
21622,16.6
21624,15.7
21625,21.0
21630,24.8
21632,25.1
21636,4.9
21637,22.6
21638,-17.5
21640,8.6
21641,4.2
21643,9.4
21645,18.1
21647,16.0
21648,11.0
21649,15.5
21651,21.0
21652,5.1
21655,11.3
21657,20.6
21659,17.8
21660,19.5
21661,20.4
21662,22.3
21663,0.5
21664,25.7
21665,20.5
21669,7.2
21675,-7.2
21678,15.0
21680,15.0
21681,18.2
21686,7.3
21687,41.6
21688,11.9
21691,5.4
21692,6.8
21693,20.8
21695,9.7
21697,12.8
21698,8.9
21699,7.2
21700,18.5
21701,13.3
21703,25.2
21706,27.2
21707,12.9
21708,3.6
21709,6.6
21712,10.8
21716,11.1
21717,10.4
21720,16.4
21725,26.2
21726,3.2
21727,18.6
21729,11.6
21730,18.5
21731,17.2
21736,15.2
21737,-9.8
21738,22.2
21739,21.0
21742,27.3
21744,22.9
21747,7.9
21749,28.8
21750,23.8
21753,27.4
21756,24.3
21758,10.9
21759,11.7
21763,8.2
21764,17.1
21765,19.1
21768,6.7
21772,21.0
21774,-2.1
21775,9.7
21777,5.1
21778,4.6
21780,19.9
21781,27.7
21783,27.1
21784,14.4
21786,41.6
21787,8.5
21788,16.2
21789,6.7
21790,11.9
21792,26.9
21793,14.6
21798,15.9
21800,13.8
21804,5.6
21807,12.1
21809,16.9
21811,13.3
21812,21.3
21822,7.0
21823,8.2
21824,5.6
21827,22.9
21828,16.6
21829,12.0
21830,26.9
21831,3.8
21832,26.7
21833,20.5
21834,17.5
21835,-12.4
21837,7.2
21838,9.3
21840,18.9
21842,6.5
21843,14.7
21845,27.0
21848,24.0
21849,31.3
21850,7.3
21851,5.8
21854,25.2
21855,20.1
21860,16.0
21861,13.3
21864,8.1
21866,7.3
21867,14.0
21868,20.9
21873,-2.1
21874,27.5
21878,22.1
21882,10.3
21885,41.6
21888,11.7
21889,7.6
21891,14.8
21894,3.2
21895,18.4
21896,24.1
21899,18.5
21902,16.8
21903,6.4
21907,14.7
21908,23.7
21911,13.3
21912,4.7
21914,20.0
21915,7.0
21916,18.3
21917,13.7
21919,25.2
21923,10.8
21926,18.7
21929,11.2
21931,6.9
21934,21.3
21936,-20.1
21941,11.2
21943,11.3
21945,20.1
21946,3.5
21949,26.2
21951,26.9
21955,25.1
21958,3.8
21960,5.9
21961,10.6
21962,3.0
21966,16.4
21970,9.4
21971,6.2
21972,13.7
21973,7.3
21974,-4.7
21977,20.3
21983,3.3
21984,13.5
21986,41.6
21987,27.9
21990,6.4
21992,9.0
21993,4.0
21995,21.6
21998,21.0
22000,16.2
22001,3.1
22004,25.6
22006,19.7
22008,20.1
22010,13.3
22012,24.9
22021,19.0
22024,18.5
22025,7.9
22026,14.4
22028,23.2
22033,17.4
22034,27.5
22035,22.2
22036,-22.7
22038,6.5
22039,26.9
22041,3.8
22045,18.2
22046,24.8
22049,21.0
22050,20.7
22053,8.5
22055,13.6
22059,25.5
22062,0.5
22067,13.7
22069,12.6
22070,17.0
22071,21.2
22073,-7.2
22074,10.6
22075,9.2
22076,24.5
22078,9.4
22079,10.0
22081,9.3
22085,39.1
22086,26.6
22088,12.7
22089,13.9
22090,9.6
22091,14.6
22092,3.8
22094,16.7
22096,10.3
22098,21.0
22099,21.4
22103,16.8
22104,5.5
22105,21.2
22106,5.4
22107,13.2
22111,10.8
22112,6.6
22114,26.6
22117,23.8
22123,23.6
22126,7.2
22129,3.1
22130,6.2
22132,5.4
22135,-15.0
22136,12.0
22138,10.9
22139,3.5
22140,18.2
22144,23.2
22148,18.4
22149,21.0
22152,27.5
22159,13.4
22160,21.3
22161,22.3
22162,0.5
22163,6.1
22164,23.9
22166,20.7
22173,-9.8
22174,12.3
22175,20.5
22176,20.4
22177,6.3
22179,22.8
22181,16.8
22182,4.2
22185,41.6
22187,15.6
22190,16.7
22191,27.6
22193,19.2
22194,18.9
22197,8.9
22198,18.5
22199,26.0
22204,21.5
22205,26.9
22209,24.3
22210,10.8
22215,10.7
22217,27.9
22218,7.4
22220,11.5
22222,24.8
22223,28.8
22224,8.0
22227,12.1
22228,22.3
22231,5.2
22233,25.9
22235,22.4
22236,-7.2
22237,23.4
22239,11.0
22240,20.1
22241,23.9
22246,14.6
22248,23.6
22249,20.6
22250,16.8
22254,7.4
22255,4.0
22260,8.2
22261,5.1
22264,14.1
22265,16.3
22268,3.5
22269,8.9
22272,-4.7
22273,9.4
22275,27.1
22279,23.1
22281,16.3
22284,41.6
22285,22.9
22286,3.2
22289,22.0
22291,14.8
22293,23.9
22294,13.8
22296,23.0
22297,18.5
22298,24.2
22299,10.7
22309,15.9
22310,25.5
22311,7.5
22313,27.8
22315,8.5
22316,26.9
22317,11.2
22322,8.2
22324,20.3
22325,10.4
22326,21.3
22327,17.9
22328,7.5
22330,11.1
22333,-12.4
22334,22.8
22336,17.1
22337,14.1
22340,14.1
22341,18.0
22342,27.6
22346,31.3
22347,5.2
22351,20.0
22354,22.6
22358,27.7
22360,10.8
22361,22.9
22362,8.6
22364,20.7
22367,22.0
22370,14.7
22371,27.3
22372,-2.1
22373,14.1
22379,9.3
22381,22.2
22382,20.1
22384,41.6
22386,5.2
22387,12.7
22388,16.7
22389,27.5
22391,24.2
22392,27.2
22393,17.3
22395,25.8
22396,18.5
22399,4.0
22401,21.9
22404,25.0
22405,19.5
22406,27.1
22409,13.3
22414,7.5
22418,22.4
22419,8.0
22420,20.7
22421,13.3
22426,17.9
22429,12.4
22430,3.2
22432,15.9
22434,-22.7
22436,9.8
22438,13.8
22439,21.7
22440,6.2
22443,15.7
22444,17.4
22445,15.9
22446,18.4
22448,23.6
22450,8.7
22451,20.2
22452,26.0
22454,10.0
22455,25.6
22457,21.5
22458,21.7
22459,21.3
22460,0.5
22465,17.3
22467,21.9
22468,15.0
22471,-7.2
22472,25.1
22474,24.1
22475,6.2
22476,5.6
22477,25.7
22478,11.2
22479,12.8
22480,4.2
22483,41.6
22486,22.6
22487,24.2
22490,8.3
22492,19.9
22493,21.7
22496,25.0
22497,18.5
22499,19.9
22503,25.1
22504,6.6
22505,12.1
22508,19.1
22509,10.8
22510,26.6
22511,24.5
22512,15.8
22513,15.8
22516,5.6
22517,22.3
22521,21.0
22522,9.5
22523,8.9
22524,17.4
22528,12.9
22529,9.1
22530,20.8
22531,25.4
22532,3.2
22533,3.1
22534,-20.1
22536,8.9
22538,17.7
22542,18.4
22544,27.5
22547,21.0
22550,24.2
22552,26.6
22554,19.3
22557,10.4
22560,0.5
22561,9.9
22566,14.6
22568,25.5
22570,19.5
22572,-4.7
22573,24.7
22576,10.7
22577,5.8
22578,27.1
22579,14.3
22580,17.5
22583,23.7
22584,41.6
22587,21.6
22591,6.4
22592,19.0
22596,18.5
22598,26.2
22600,10.1
22602,8.8
22603,22.2
22606,23.8
22607,27.8
22608,8.2
22610,5.7
22614,12.8
22615,26.4
22616,21.3
22619,9.2
22620,-4.7
22628,17.5
22631,26.0
22632,8.2
22633,-17.5
22634,18.3
22639,11.2
22643,18.7
22646,28.8
22649,20.8
22651,17.2
22654,4.4
22656,23.3
22659,8.2
22663,20.6
22664,17.3
22665,13.7
22666,15.7
22667,10.9
22668,15.7
22670,0.5
22671,8.6
22673,19.8
22674,11.2
22676,19.6
22677,22.9
22681,33.9
22682,4.8
22684,14.9
22686,10.7
22687,23.6
22690,27.8
22691,19.9
22694,3.0
22701,15.2
22702,26.9
22705,8.3
22706,31.3
22707,27.9
22709,19.3
22712,5.4
22713,20.2
22715,14.6
22718,10.8
22723,26.9
22724,5.3
22730,-4.7
22731,26.0
22732,18.9
22733,7.8
22734,19.4
22737,19.0
22743,41.6
22744,3.1
22746,15.7
22748,8.4
22749,17.6
22750,6.7
22753,7.9
22754,20.8
22756,18.5
22760,11.0
22761,3.3
22764,25.6
22765,13.2
22766,17.7
22768,13.3
22772,11.5
22773,26.8
22776,11.3
22778,22.1
22779,21.2
22780,21.0
22782,8.6
22784,22.1
22786,27.1
22790,26.2
22792,20.1
22793,-20.1
22795,12.8
22797,7.9
22800,14.5
22803,10.8
22805,19.8
22806,21.0
22807,11.3
22810,6.0
22813,18.6
22815,6.9
22816,17.9
22818,0.5
22820,4.3
22822,6.5
22823,6.2
22824,9.7
22825,15.2
22828,10.3
22830,22.8
22831,-7.2
22832,11.2
22833,3.8
22834,9.1
22835,11.9
22842,12.2
22843,41.6
22844,20.4
22846,27.7
22847,4.0
22848,27.5
22850,3.9
22854,13.3
22855,21.0
22858,14.8
22861,4.8
22863,13.5
22867,10.8
22868,10.7
22875,26.4
22876,22.8
22880,23.6
22882,17.1
22884,23.0
22886,23.0
22889,5.8
22890,7.0
22893,-12.4
22895,16.8
22898,9.2
22899,19.6
22901,5.3
22903,18.9
22905,14.9
22906,18.5
22907,21.3
22913,22.6
22917,24.1
22919,0.5
22920,11.1
22921,13.9
22922,13.1
22925,25.7
22926,7.2
22927,6.7
22930,-9.8
22933,27.5
22934,19.2
22935,19.4
22937,18.8
22938,12.1
22939,10.4
22940,13.5
22942,41.6
22943,20.4
22946,9.2
22947,3.1
22951,9.4
22953,12.2
22954,23.3
22955,11.5
22956,18.5
22957,11.3
22959,6.2
22960,13.2
22963,20.6
22968,10.8
22970,13.7
22972,15.5
22974,15.2
22975,16.5
22976,23.1
22980,31.3
22985,10.8
22986,22.8
22987,8.8
22990,6.4
22992,-4.7
22995,13.2
22999,27.7
23000,17.4
23002,18.0
23005,23.6
23006,9.6
23007,23.6
23008,3.9
23009,16.0
23010,20.4
23011,23.6
23014,13.0
23017,5.6
23023,12.4
23024,19.5
23027,23.5
23029,-2.1
23032,6.6
23033,27.0
23035,25.2
23036,17.1
23037,7.6
23038,20.1
23039,6.7
23040,17.1
23041,12.4
23042,44.2
23043,11.4
23051,3.6
23052,5.6
23054,18.5
23055,22.3
23056,3.9
23058,19.1
23060,25.9
23061,3.6
23063,21.0
23066,15.9
23069,26.9
23071,20.0
23072,7.3
23073,4.4
23074,17.6
23078,10.8
23080,8.2
23082,10.7
23084,3.8
23088,13.9
23089,14.9
23092,-20.1
23093,7.1
23094,5.9
23096,7.6
23097,4.8
23098,19.2
23101,20.1
23102,21.9
23104,23.4
23105,26.2
23109,17.7
23110,18.9
23111,24.0
23113,21.5
23115,6.9
23117,3.0
23119,26.0
23121,22.6
23124,18.2
23125,5.8
23127,24.3
23128,8.6
23129,-4.7
23130,15.0
23134,7.0
23137,26.0
23138,4.1
23139,4.4
23141,41.6
23142,17.0
23143,25.1
23149,15.8
23150,19.3
23151,14.1
23152,10.0
23153,18.5
23156,14.4
23157,4.4
23158,10.2
23160,17.0
23162,15.3
23164,16.5
23166,13.3
23167,25.2
23168,22.7
23170,25.3
23171,26.3
23175,4.6
23176,7.8
23179,18.5
23180,7.0
23181,19.5
23182,23.8
23183,21.7
23184,3.6
23185,5.0
23186,27.9
23189,13.5
23190,17.4
23191,-20.1
23193,4.3
23197,10.3
23200,13.4
23201,13.5
23203,15.6
23204,23.6
23205,11.1
23208,21.5
23210,9.8
23213,13.2
23214,24.1
23217,0.5
23220,13.4
23221,20.3
23224,3.5
23226,13.7
23227,23.8
23229,-4.7
23230,9.6
23231,6.9
23234,18.7
23235,25.9
23236,28.0
23239,7.4
23241,44.2
23242,14.5
23246,14.3
23247,14.6
23248,9.3
23249,15.4
23252,25.7
23254,18.5
23255,9.5
23256,14.0
23259,23.3
23260,20.5
23263,9.8
23264,11.0
23266,10.8
23272,14.7
23273,22.4
23274,4.3
23278,21.0
23281,13.8
23282,6.6
23283,18.4
23284,15.5
23287,14.3
23288,26.0
23290,16.6
23291,-17.5
23294,6.9
23295,16.1
23296,22.9
23297,6.4
23298,22.9
23301,6.7
23303,13.0
23305,21.0
23307,21.0
23309,20.7
23311,21.9
23314,9.4
23315,13.9
23317,0.5
23318,3.0
23321,7.9
23328,-7.2
23329,15.3
23330,19.1
23336,26.5
23339,3.8
23340,12.7
23341,41.6
23343,20.9
23344,16.6
23349,3.3
23350,8.0
23352,20.2
23353,21.0
23357,27.1
23360,13.0
23361,10.6
23364,14.8
23365,24.7
23366,10.8
23370,24.0
